,personId,probability,gold,TP,FP,TN,FN,TN_recall,Precise
0,120,0.9400864839553833,True,1.0,0.0,12.0,814.0,1.0,1.0
1,259,0.9252218008041382,True,2.0,0.0,11.0,814.0,1.0,1.0
2,564,0.9208226203918457,True,3.0,0.0,10.0,814.0,1.0,1.0
3,415,0.8235585689544678,True,4.0,0.0,9.0,814.0,1.0,1.0
4,485,0.8106181025505066,True,5.0,0.0,8.0,814.0,1.0,1.0
5,408,0.7933591604232788,True,6.0,0.0,7.0,814.0,1.0,1.0
6,348,0.7818689942359924,True,7.0,0.0,6.0,814.0,1.0,1.0
7,572,0.75578373670578,True,8.0,0.0,5.0,814.0,1.0,1.0
8,501,0.6501737833023071,True,9.0,0.0,4.0,814.0,1.0,1.0
9,646,0.47600433230400085,False,9.0,1.0,4.0,813.0,0.9987714987714987,0.9
10,368,0.2768353819847107,True,10.0,1.0,3.0,813.0,0.9987714987714987,0.9090909090909091
11,555,0.2736630141735077,False,10.0,2.0,3.0,812.0,0.9975429975429976,0.8333333333333334
12,548,0.2528364658355713,True,11.0,2.0,2.0,812.0,0.9975429975429976,0.8461538461538461
13,253,0.22591698169708252,False,11.0,3.0,2.0,811.0,0.9963144963144963,0.7857142857142857
14,505,0.21630924940109253,False,11.0,4.0,2.0,810.0,0.995085995085995,0.7333333333333333
15,170,0.20659002661705017,True,12.0,4.0,1.0,810.0,0.995085995085995,0.75
16,15,0.16974875330924988,False,12.0,5.0,1.0,809.0,0.9938574938574939,0.7058823529411765
17,502,0.12982669472694397,False,12.0,6.0,1.0,808.0,0.9926289926289926,0.6666666666666666
18,790,0.1168995201587677,False,12.0,7.0,1.0,807.0,0.9914004914004914,0.631578947368421
19,356,0.07954081892967224,False,12.0,8.0,1.0,806.0,0.9901719901719902,0.6
20,410,0.07720497250556946,False,12.0,9.0,1.0,805.0,0.9889434889434889,0.5714285714285714
21,313,0.07616117596626282,False,12.0,10.0,1.0,804.0,0.9877149877149877,0.5454545454545454
22,32,0.06434926390647888,False,12.0,11.0,1.0,803.0,0.9864864864864865,0.5217391304347826
23,645,0.0594596266746521,False,12.0,12.0,1.0,802.0,0.9852579852579852,0.5
24,341,0.04976174235343933,False,12.0,13.0,1.0,801.0,0.984029484029484,0.48
25,64,0.04884764552116394,False,12.0,14.0,1.0,800.0,0.9828009828009828,0.46153846153846156
26,1,0.04834344983100891,False,12.0,15.0,1.0,799.0,0.9815724815724816,0.4444444444444444
27,23,0.045748889446258545,False,12.0,16.0,1.0,798.0,0.9803439803439803,0.42857142857142855
28,27,0.04368135333061218,False,12.0,17.0,1.0,797.0,0.9791154791154791,0.41379310344827586
29,712,0.04333609342575073,False,12.0,18.0,1.0,796.0,0.9778869778869779,0.4
30,757,0.03887671232223511,False,12.0,19.0,1.0,795.0,0.9766584766584766,0.3870967741935484
31,251,0.033262163400650024,False,12.0,20.0,1.0,794.0,0.9754299754299754,0.375
32,355,0.03319534659385681,True,13.0,20.0,0.0,794.0,0.9754299754299754,0.3939393939393939
33,611,0.029429346323013306,False,13.0,21.0,0.0,793.0,0.9742014742014742,0.38235294117647056
34,662,0.027398616075515747,False,13.0,22.0,0.0,792.0,0.972972972972973,0.37142857142857144
35,453,0.02208283543586731,False,13.0,23.0,0.0,791.0,0.9717444717444718,0.3611111111111111
36,650,0.018795698881149292,False,13.0,24.0,0.0,790.0,0.9705159705159705,0.35135135135135137
37,91,0.01845613121986389,False,13.0,25.0,0.0,789.0,0.9692874692874693,0.34210526315789475
38,96,0.01818937063217163,False,13.0,26.0,0.0,788.0,0.9680589680589681,0.3333333333333333
39,342,0.017974168062210083,False,13.0,27.0,0.0,787.0,0.9668304668304668,0.325
40,563,0.01690495014190674,False,13.0,28.0,0.0,786.0,0.9656019656019657,0.3170731707317073
41,481,0.01631152629852295,False,13.0,29.0,0.0,785.0,0.9643734643734644,0.30952380952380953
42,659,0.01583006978034973,False,13.0,30.0,0.0,784.0,0.9631449631449631,0.3023255813953488
43,626,0.014694362878799438,False,13.0,31.0,0.0,783.0,0.961916461916462,0.29545454545454547
44,463,0.012989461421966553,False,13.0,32.0,0.0,782.0,0.9606879606879607,0.28888888888888886
45,382,0.011539608240127563,False,13.0,33.0,0.0,781.0,0.9594594594594594,0.2826086956521739
46,18,0.010550469160079956,False,13.0,34.0,0.0,780.0,0.9582309582309583,0.2765957446808511
47,112,0.010388791561126709,False,13.0,35.0,0.0,779.0,0.957002457002457,0.2708333333333333
48,2,0.009349018335342407,False,13.0,36.0,0.0,778.0,0.9557739557739557,0.2653061224489796
49,395,0.008331537246704102,False,13.0,37.0,0.0,777.0,0.9545454545454546,0.26
50,75,0.008234918117523193,False,13.0,38.0,0.0,776.0,0.9533169533169533,0.2549019607843137
51,632,0.008108913898468018,False,13.0,39.0,0.0,775.0,0.952088452088452,0.25
52,541,0.008065491914749146,False,13.0,40.0,0.0,774.0,0.9508599508599509,0.24528301886792453
53,99,0.007285624742507935,False,13.0,41.0,0.0,773.0,0.9496314496314496,0.24074074074074073
54,379,0.007276862859725952,False,13.0,42.0,0.0,772.0,0.9484029484029484,0.23636363636363636
55,574,0.0069751739501953125,False,13.0,43.0,0.0,771.0,0.9471744471744472,0.23214285714285715
56,345,0.00689089298248291,False,13.0,44.0,0.0,770.0,0.9459459459459459,0.22807017543859648
57,28,0.006499052047729492,False,13.0,45.0,0.0,769.0,0.9447174447174447,0.22413793103448276
58,287,0.006149619817733765,False,13.0,46.0,0.0,768.0,0.9434889434889435,0.22033898305084745
59,469,0.006012022495269775,False,13.0,47.0,0.0,767.0,0.9422604422604423,0.21666666666666667
60,249,0.005906432867050171,False,13.0,48.0,0.0,766.0,0.941031941031941,0.21311475409836064
61,40,0.005894124507904053,False,13.0,49.0,0.0,765.0,0.9398034398034398,0.20967741935483872
62,629,0.00589105486869812,False,13.0,50.0,0.0,764.0,0.9385749385749386,0.20634920634920634
63,148,0.005168706178665161,False,13.0,51.0,0.0,763.0,0.9373464373464373,0.203125
64,274,0.005156099796295166,False,13.0,52.0,0.0,762.0,0.9361179361179361,0.2
65,190,0.005054861307144165,False,13.0,53.0,0.0,761.0,0.9348894348894349,0.19696969696969696
66,298,0.00495639443397522,False,13.0,54.0,0.0,760.0,0.9336609336609336,0.19402985074626866
67,126,0.004777431488037109,False,13.0,55.0,0.0,759.0,0.9324324324324325,0.19117647058823528
68,212,0.004687875509262085,False,13.0,56.0,0.0,758.0,0.9312039312039312,0.18840579710144928
69,188,0.004670619964599609,False,13.0,57.0,0.0,757.0,0.9299754299754299,0.18571428571428572
70,67,0.004667222499847412,False,13.0,58.0,0.0,756.0,0.9287469287469288,0.18309859154929578
71,779,0.004185914993286133,False,13.0,59.0,0.0,755.0,0.9275184275184275,0.18055555555555555
72,159,0.0040367841720581055,False,13.0,60.0,0.0,754.0,0.9262899262899262,0.1780821917808219
73,332,0.003949850797653198,False,13.0,61.0,0.0,753.0,0.9250614250614251,0.17567567567567569
74,333,0.0038917362689971924,False,13.0,62.0,0.0,752.0,0.9238329238329238,0.17333333333333334
75,498,0.003613293170928955,False,13.0,63.0,0.0,751.0,0.9226044226044227,0.17105263157894737
76,377,0.0035973787307739258,False,13.0,64.0,0.0,750.0,0.9213759213759214,0.16883116883116883
77,104,0.003467351198196411,False,13.0,65.0,0.0,749.0,0.9201474201474201,0.16666666666666666
78,236,0.003425091505050659,False,13.0,66.0,0.0,748.0,0.918918918918919,0.16455696202531644
79,320,0.0033039748668670654,False,13.0,67.0,0.0,747.0,0.9176904176904177,0.1625
80,73,0.003227055072784424,False,13.0,68.0,0.0,746.0,0.9164619164619164,0.16049382716049382
81,384,0.003163158893585205,False,13.0,69.0,0.0,745.0,0.9152334152334153,0.15853658536585366
82,618,0.0030771493911743164,False,13.0,70.0,0.0,744.0,0.914004914004914,0.1566265060240964
83,77,0.0030286312103271484,False,13.0,71.0,0.0,743.0,0.9127764127764127,0.15476190476190477
84,151,0.002996295690536499,False,13.0,72.0,0.0,742.0,0.9115479115479116,0.15294117647058825
85,747,0.0029246509075164795,False,13.0,73.0,0.0,741.0,0.9103194103194103,0.1511627906976744
86,128,0.0028460323810577393,False,13.0,74.0,0.0,740.0,0.9090909090909091,0.14942528735632185
87,489,0.0027981698513031006,False,13.0,75.0,0.0,739.0,0.9078624078624079,0.14772727272727273
88,344,0.0027656257152557373,False,13.0,76.0,0.0,738.0,0.9066339066339066,0.14606741573033707
89,116,0.0027351975440979004,False,13.0,77.0,0.0,737.0,0.9054054054054054,0.14444444444444443
90,166,0.0026389658451080322,False,13.0,78.0,0.0,736.0,0.9041769041769042,0.14285714285714285
91,466,0.0025432705879211426,False,13.0,79.0,0.0,735.0,0.902948402948403,0.14130434782608695
92,289,0.002539336681365967,False,13.0,80.0,0.0,734.0,0.9017199017199017,0.13978494623655913
93,323,0.0025385916233062744,False,13.0,81.0,0.0,733.0,0.9004914004914005,0.13829787234042554
94,365,0.002531081438064575,False,13.0,82.0,0.0,732.0,0.8992628992628993,0.1368421052631579
95,364,0.0025177597999572754,False,13.0,83.0,0.0,731.0,0.898034398034398,0.13541666666666666
96,420,0.0025014281272888184,False,13.0,84.0,0.0,730.0,0.8968058968058968,0.13402061855670103
97,525,0.0024318695068359375,False,13.0,85.0,0.0,729.0,0.8955773955773956,0.1326530612244898
98,554,0.0022608935832977295,False,13.0,86.0,0.0,728.0,0.8943488943488943,0.13131313131313133
99,613,0.002214580774307251,False,13.0,87.0,0.0,727.0,0.8931203931203932,0.13
100,127,0.0021638572216033936,False,13.0,88.0,0.0,726.0,0.8918918918918919,0.12871287128712872
101,594,0.0020570755004882812,False,13.0,89.0,0.0,725.0,0.8906633906633906,0.12745098039215685
102,826,0.002052412834018469,False,13.0,90.0,0.0,724.0,0.8894348894348895,0.1262135922330097
103,62,0.0020188987255096436,False,13.0,91.0,0.0,723.0,0.8882063882063882,0.125
104,42,0.0019909441471099854,False,13.0,92.0,0.0,722.0,0.8869778869778869,0.12380952380952381
105,744,0.001981675624847412,False,13.0,93.0,0.0,721.0,0.8857493857493858,0.12264150943396226
106,41,0.0019067227840423584,False,13.0,94.0,0.0,720.0,0.8845208845208845,0.12149532710280374
107,255,0.0019055008888244629,False,13.0,95.0,0.0,719.0,0.8832923832923832,0.12037037037037036
108,616,0.0018598437309265137,False,13.0,96.0,0.0,718.0,0.8820638820638821,0.11926605504587157
109,422,0.0018466413021087646,False,13.0,97.0,0.0,717.0,0.8808353808353808,0.11818181818181818
110,534,0.0017754435539245605,False,13.0,98.0,0.0,716.0,0.8796068796068796,0.11711711711711711
111,205,0.0017524361610412598,False,13.0,99.0,0.0,715.0,0.8783783783783784,0.11607142857142858
112,578,0.001698136329650879,False,13.0,100.0,0.0,714.0,0.8771498771498771,0.11504424778761062
113,707,0.0016638338565826416,False,13.0,101.0,0.0,713.0,0.8759213759213759,0.11403508771929824
114,435,0.0016531646251678467,False,13.0,102.0,0.0,712.0,0.8746928746928747,0.11304347826086956
115,110,0.0016528666019439697,False,13.0,103.0,0.0,711.0,0.8734643734643734,0.11206896551724138
116,397,0.0016478896141052246,False,13.0,104.0,0.0,710.0,0.8722358722358723,0.1111111111111111
117,759,0.0016478896141052246,False,13.0,105.0,0.0,709.0,0.871007371007371,0.11016949152542373
118,672,0.0016180574893951416,False,13.0,106.0,0.0,708.0,0.8697788697788698,0.1092436974789916
119,441,0.001601487398147583,False,13.0,107.0,0.0,707.0,0.8685503685503686,0.10833333333333334
120,579,0.0015948712825775146,False,13.0,108.0,0.0,706.0,0.8673218673218673,0.10743801652892562
121,681,0.0015912055969238281,False,13.0,109.0,0.0,705.0,0.8660933660933661,0.10655737704918032
122,353,0.0015255510807037354,False,13.0,110.0,0.0,704.0,0.8648648648648649,0.10569105691056911
123,343,0.0015083253383636475,False,13.0,111.0,0.0,703.0,0.8636363636363636,0.10483870967741936
124,293,0.0014578402042388916,False,13.0,112.0,0.0,702.0,0.8624078624078624,0.104
125,414,0.0014162957668304443,False,13.0,113.0,0.0,701.0,0.8611793611793612,0.10317460317460317
126,557,0.0014017224311828613,False,13.0,114.0,0.0,700.0,0.85995085995086,0.10236220472440945
127,666,0.0013551414012908936,False,13.0,115.0,0.0,699.0,0.8587223587223587,0.1015625
128,141,0.0013203024864196777,False,13.0,116.0,0.0,698.0,0.8574938574938575,0.10077519379844961
129,725,0.001309812068939209,False,13.0,117.0,0.0,697.0,0.8562653562653563,0.1
130,581,0.00129660964012146,False,13.0,118.0,0.0,696.0,0.855036855036855,0.09923664122137404
131,111,0.001268148422241211,False,13.0,119.0,0.0,695.0,0.8538083538083538,0.09848484848484848
132,761,0.0012660026550292969,False,13.0,120.0,0.0,694.0,0.8525798525798526,0.09774436090225563
133,607,0.0012459754943847656,False,13.0,121.0,0.0,693.0,0.8513513513513513,0.09701492537313433
134,785,0.0012269318103790283,False,13.0,122.0,0.0,692.0,0.8501228501228502,0.0962962962962963
135,201,0.0012226402759552002,False,13.0,123.0,0.0,691.0,0.8488943488943489,0.09558823529411764
136,33,0.001178443431854248,False,13.0,124.0,0.0,690.0,0.8476658476658476,0.0948905109489051
137,740,0.0011728107929229736,False,13.0,125.0,0.0,689.0,0.8464373464373465,0.09420289855072464
138,208,0.0011533498764038086,False,13.0,126.0,0.0,688.0,0.8452088452088452,0.09352517985611511
139,196,0.0011426806449890137,False,13.0,127.0,0.0,687.0,0.8439803439803439,0.09285714285714286
140,728,0.0011367201805114746,False,13.0,128.0,0.0,686.0,0.8427518427518428,0.09219858156028368
141,85,0.0011240839958190918,False,13.0,129.0,0.0,685.0,0.8415233415233415,0.09154929577464789
142,509,0.0011202991008758545,False,13.0,130.0,0.0,684.0,0.8402948402948403,0.09090909090909091
143,658,0.001101374626159668,False,13.0,131.0,0.0,683.0,0.8390663390663391,0.09027777777777778
144,500,0.0010789334774017334,False,13.0,132.0,0.0,682.0,0.8378378378378378,0.0896551724137931
145,553,0.0010648369789123535,False,13.0,133.0,0.0,681.0,0.8366093366093366,0.08904109589041095
146,184,0.0010586082935333252,False,13.0,134.0,0.0,680.0,0.8353808353808354,0.08843537414965986
147,769,0.0010350346565246582,False,13.0,135.0,0.0,679.0,0.8341523341523341,0.08783783783783784
148,336,0.001032501459121704,False,13.0,136.0,0.0,678.0,0.8329238329238329,0.087248322147651
149,814,0.0009813308715820312,False,13.0,137.0,0.0,677.0,0.8316953316953317,0.08666666666666667
150,177,0.0009470283985137939,False,13.0,138.0,0.0,676.0,0.8304668304668305,0.08609271523178808
151,69,0.0008935630321502686,False,13.0,139.0,0.0,675.0,0.8292383292383292,0.08552631578947369
152,302,0.0008896291255950928,False,13.0,140.0,0.0,674.0,0.828009828009828,0.08496732026143791
153,776,0.0008781254291534424,False,13.0,141.0,0.0,673.0,0.8267813267813268,0.08441558441558442
154,74,0.0008676052093505859,False,13.0,142.0,0.0,672.0,0.8255528255528255,0.08387096774193549
155,68,0.000858306884765625,False,13.0,143.0,0.0,671.0,0.8243243243243243,0.08333333333333333
156,178,0.0008547604084014893,False,13.0,144.0,0.0,670.0,0.8230958230958231,0.08280254777070063
157,667,0.000850290060043335,False,13.0,145.0,0.0,669.0,0.8218673218673219,0.08227848101265822
158,789,0.0008482933044433594,False,13.0,146.0,0.0,668.0,0.8206388206388207,0.08176100628930817
159,823,0.0008352398872375488,False,13.0,147.0,0.0,667.0,0.8194103194103194,0.08125
160,749,0.0007891952991485596,False,13.0,148.0,0.0,666.0,0.8181818181818182,0.08074534161490683
161,185,0.0007847845554351807,False,13.0,149.0,0.0,665.0,0.816953316953317,0.08024691358024691
162,522,0.0007418692111968994,False,13.0,150.0,0.0,664.0,0.8157248157248157,0.07975460122699386
163,797,0.0007117390632629395,False,13.0,151.0,0.0,663.0,0.8144963144963145,0.07926829268292683
164,503,0.0006705522537231445,False,13.0,152.0,0.0,662.0,0.8132678132678133,0.07878787878787878
165,106,0.0006594955921173096,False,13.0,153.0,0.0,661.0,0.812039312039312,0.0783132530120482
166,439,0.000643312931060791,False,13.0,154.0,0.0,660.0,0.8108108108108109,0.07784431137724551
167,86,0.0006332099437713623,False,13.0,155.0,0.0,659.0,0.8095823095823096,0.07738095238095238
168,438,0.0006080865859985352,False,13.0,156.0,0.0,658.0,0.8083538083538083,0.07692307692307693
169,695,0.0005996227264404297,False,13.0,157.0,0.0,657.0,0.8071253071253072,0.07647058823529412
170,417,0.0005994141101837158,False,13.0,158.0,0.0,656.0,0.8058968058968059,0.07602339181286549
171,718,0.0005925595760345459,False,13.0,159.0,0.0,655.0,0.8046683046683046,0.0755813953488372
172,784,0.0005919337272644043,False,13.0,160.0,0.0,654.0,0.8034398034398035,0.07514450867052024
173,19,0.0005627870559692383,False,13.0,161.0,0.0,653.0,0.8022113022113022,0.07471264367816093
174,309,0.00055655837059021,False,13.0,162.0,0.0,652.0,0.800982800982801,0.07428571428571429
175,478,0.0005553662776947021,False,13.0,163.0,0.0,651.0,0.7997542997542998,0.07386363636363637
176,609,0.0005408525466918945,False,13.0,164.0,0.0,650.0,0.7985257985257985,0.07344632768361582
177,22,0.0005185604095458984,False,13.0,165.0,0.0,649.0,0.7972972972972973,0.07303370786516854
178,217,0.0005023777484893799,False,13.0,166.0,0.0,648.0,0.7960687960687961,0.07262569832402235
179,682,0.0004986226558685303,False,13.0,167.0,0.0,647.0,0.7948402948402948,0.07222222222222222
180,303,0.0004767477512359619,False,13.0,168.0,0.0,646.0,0.7936117936117936,0.0718232044198895
181,452,0.0004582703113555908,False,13.0,169.0,0.0,645.0,0.7923832923832924,0.07142857142857142
182,330,0.0004496276378631592,False,13.0,170.0,0.0,644.0,0.7911547911547911,0.07103825136612021
183,393,0.00044268369674682617,False,13.0,171.0,0.0,643.0,0.7899262899262899,0.07065217391304347
184,683,0.00043582916259765625,False,13.0,172.0,0.0,642.0,0.7886977886977887,0.07027027027027027
185,493,0.00043529272079467773,False,13.0,173.0,0.0,641.0,0.7874692874692875,0.06989247311827956
186,758,0.0004323720932006836,False,13.0,174.0,0.0,640.0,0.7862407862407862,0.06951871657754011
187,44,0.00039768218994140625,False,13.0,175.0,0.0,639.0,0.785012285012285,0.06914893617021277
188,724,0.0003909170627593994,False,13.0,176.0,0.0,638.0,0.7837837837837838,0.06878306878306878
189,491,0.0003897249698638916,False,13.0,177.0,0.0,637.0,0.7825552825552825,0.06842105263157895
190,381,0.0003891885280609131,False,13.0,178.0,0.0,636.0,0.7813267813267813,0.06806282722513089
191,713,0.0003890097141265869,False,13.0,179.0,0.0,635.0,0.7800982800982801,0.06770833333333333
192,693,0.0003771781921386719,False,13.0,180.0,0.0,634.0,0.7788697788697788,0.06735751295336788
193,495,0.00037211179733276367,False,13.0,181.0,0.0,633.0,0.7776412776412777,0.06701030927835051
194,59,0.0003713369369506836,False,13.0,182.0,0.0,632.0,0.7764127764127764,0.06666666666666667
195,195,0.0003693997859954834,False,13.0,183.0,0.0,631.0,0.7751842751842751,0.0663265306122449
196,687,0.0003616809844970703,False,13.0,184.0,0.0,630.0,0.773955773955774,0.06598984771573604
197,446,0.00035384297370910645,False,13.0,185.0,0.0,629.0,0.7727272727272727,0.06565656565656566
198,778,0.0003529191017150879,False,13.0,186.0,0.0,628.0,0.7714987714987716,0.06532663316582915
199,721,0.00035068392753601074,False,13.0,187.0,0.0,627.0,0.7702702702702703,0.065
200,514,0.0003490149974822998,False,13.0,188.0,0.0,626.0,0.769041769041769,0.06467661691542288
201,532,0.000344693660736084,False,13.0,189.0,0.0,625.0,0.7678132678132679,0.06435643564356436
202,447,0.0003421902656555176,False,13.0,190.0,0.0,624.0,0.7665847665847666,0.06403940886699508
203,549,0.00033590197563171387,False,13.0,191.0,0.0,623.0,0.7653562653562653,0.06372549019607843
204,473,0.0003298819065093994,False,13.0,192.0,0.0,622.0,0.7641277641277642,0.06341463414634146
205,143,0.0003293156623840332,False,13.0,193.0,0.0,621.0,0.7628992628992629,0.06310679611650485
206,524,0.000321805477142334,False,13.0,194.0,0.0,620.0,0.7616707616707616,0.06280193236714976
207,624,0.0003204047679901123,False,13.0,195.0,0.0,619.0,0.7604422604422605,0.0625
208,121,0.0003166794776916504,False,13.0,196.0,0.0,618.0,0.7592137592137592,0.06220095693779904
209,710,0.00031563639640808105,False,13.0,197.0,0.0,617.0,0.757985257985258,0.06190476190476191
210,598,0.00031065940856933594,False,13.0,198.0,0.0,616.0,0.7567567567567568,0.061611374407582936
211,376,0.00030434131622314453,False,13.0,199.0,0.0,615.0,0.7555282555282555,0.06132075471698113
212,787,0.00029793381690979004,False,13.0,200.0,0.0,614.0,0.7542997542997543,0.06103286384976526
213,584,0.0002956688404083252,False,13.0,201.0,0.0,613.0,0.7530712530712531,0.06074766355140187
214,656,0.0002945363521575928,False,13.0,202.0,0.0,612.0,0.7518427518427518,0.06046511627906977
215,689,0.00029203295707702637,False,13.0,203.0,0.0,611.0,0.7506142506142506,0.06018518518518518
216,543,0.000289231538772583,False,13.0,204.0,0.0,610.0,0.7493857493857494,0.059907834101382486
217,768,0.0002886354923248291,False,13.0,205.0,0.0,609.0,0.7481572481572482,0.05963302752293578
218,781,0.0002860128879547119,False,13.0,206.0,0.0,608.0,0.7469287469287469,0.0593607305936073
219,224,0.00028589367866516113,False,13.0,207.0,0.0,607.0,0.7457002457002457,0.05909090909090909
220,773,0.0002849698066711426,False,13.0,208.0,0.0,606.0,0.7444717444717445,0.058823529411764705
221,583,0.0002821683883666992,False,13.0,209.0,0.0,605.0,0.7432432432432432,0.05855855855855856
222,492,0.0002821683883666992,False,13.0,210.0,0.0,604.0,0.742014742014742,0.05829596412556054
223,57,0.0002810359001159668,False,13.0,211.0,0.0,603.0,0.7407862407862408,0.05803571428571429
224,458,0.0002791285514831543,False,13.0,212.0,0.0,602.0,0.7395577395577395,0.057777777777777775
225,670,0.0002722740173339844,False,13.0,213.0,0.0,601.0,0.7383292383292384,0.05752212389380531
226,325,0.00025793910026550293,False,13.0,214.0,0.0,600.0,0.7371007371007371,0.05726872246696035
227,730,0.0002510547637939453,False,13.0,215.0,0.0,599.0,0.7358722358722358,0.05701754385964912
228,753,0.0002497732639312744,False,13.0,216.0,0.0,598.0,0.7346437346437347,0.056768558951965066
229,312,0.0002428293228149414,False,13.0,217.0,0.0,597.0,0.7334152334152334,0.05652173913043478
230,643,0.00023829936981201172,False,13.0,218.0,0.0,596.0,0.7321867321867321,0.05627705627705628
231,390,0.00023356080055236816,False,13.0,219.0,0.0,595.0,0.730958230958231,0.05603448275862069
232,597,0.0002307891845703125,False,13.0,220.0,0.0,594.0,0.7297297297297297,0.055793991416309016
233,108,0.00022941827774047852,False,13.0,221.0,0.0,593.0,0.7285012285012284,0.05555555555555555
234,4,0.00022426247596740723,False,13.0,222.0,0.0,592.0,0.7272727272727273,0.05531914893617021
235,242,0.00021961331367492676,False,13.0,223.0,0.0,591.0,0.726044226044226,0.05508474576271186
236,690,0.00021657347679138184,False,13.0,224.0,0.0,590.0,0.7248157248157249,0.05485232067510549
237,767,0.0002066195011138916,False,13.0,225.0,0.0,589.0,0.7235872235872236,0.0546218487394958
238,100,0.0002028942108154297,False,13.0,226.0,0.0,588.0,0.7223587223587223,0.05439330543933055
239,16,0.00019699335098266602,False,13.0,227.0,0.0,587.0,0.7211302211302212,0.05416666666666667
240,138,0.00019672513008117676,False,13.0,228.0,0.0,586.0,0.7199017199017199,0.05394190871369295
241,137,0.00019654631614685059,False,13.0,229.0,0.0,585.0,0.7186732186732187,0.05371900826446281
242,684,0.000195235013961792,False,13.0,230.0,0.0,584.0,0.7174447174447175,0.053497942386831275
243,519,0.00019416213035583496,False,13.0,231.0,0.0,583.0,0.7162162162162162,0.05327868852459016
244,219,0.0001926422119140625,False,13.0,232.0,0.0,582.0,0.714987714987715,0.053061224489795916
245,149,0.0001900196075439453,False,13.0,233.0,0.0,581.0,0.7137592137592138,0.052845528455284556
246,319,0.0001882314682006836,False,13.0,234.0,0.0,580.0,0.7125307125307125,0.05263157894736842
247,589,0.00018540024757385254,False,13.0,235.0,0.0,579.0,0.7113022113022113,0.05241935483870968
248,459,0.00018531084060668945,False,13.0,236.0,0.0,578.0,0.7100737100737101,0.05220883534136546
249,539,0.00018221139907836914,False,13.0,237.0,0.0,577.0,0.7088452088452089,0.052
250,167,0.00018161535263061523,False,13.0,238.0,0.0,576.0,0.7076167076167076,0.05179282868525897
251,220,0.00018128752708435059,False,13.0,239.0,0.0,575.0,0.7063882063882064,0.051587301587301584
252,688,0.0001799166202545166,False,13.0,240.0,0.0,574.0,0.7051597051597052,0.05138339920948617
253,58,0.00017902255058288574,False,13.0,241.0,0.0,573.0,0.7039312039312039,0.051181102362204724
254,723,0.00017693638801574707,False,13.0,242.0,0.0,572.0,0.7027027027027027,0.050980392156862744
255,742,0.00017017126083374023,False,13.0,243.0,0.0,571.0,0.7014742014742015,0.05078125
256,795,0.00016868114471435547,False,13.0,244.0,0.0,570.0,0.7002457002457002,0.05058365758754864
257,247,0.00016796588897705078,False,13.0,245.0,0.0,569.0,0.699017199017199,0.050387596899224806
258,378,0.00015884637832641602,False,13.0,246.0,0.0,568.0,0.6977886977886978,0.05019305019305019
259,460,0.00015866756439208984,False,13.0,247.0,0.0,567.0,0.6965601965601965,0.05
260,488,0.00015842914581298828,False,13.0,248.0,0.0,566.0,0.6953316953316954,0.04980842911877394
261,545,0.00015792250633239746,False,13.0,249.0,0.0,565.0,0.6941031941031941,0.04961832061068702
262,202,0.00015482306480407715,False,13.0,250.0,0.0,564.0,0.6928746928746928,0.049429657794676805
263,46,0.0001513659954071045,False,13.0,251.0,0.0,563.0,0.6916461916461917,0.04924242424242424
264,61,0.00014969706535339355,False,13.0,252.0,0.0,562.0,0.6904176904176904,0.04905660377358491
265,518,0.0001455247402191162,False,13.0,253.0,0.0,561.0,0.6891891891891891,0.04887218045112782
266,647,0.00014537572860717773,False,13.0,254.0,0.0,560.0,0.687960687960688,0.04868913857677903
267,813,0.0001449882984161377,False,13.0,255.0,0.0,559.0,0.6867321867321867,0.048507462686567165
268,98,0.0001417696475982666,False,13.0,256.0,0.0,558.0,0.6855036855036855,0.048327137546468404
269,702,0.00013759732246398926,False,13.0,257.0,0.0,557.0,0.6842751842751843,0.04814814814814815
270,763,0.0001373291015625,False,13.0,258.0,0.0,556.0,0.683046683046683,0.04797047970479705
271,241,0.00013455748558044434,False,13.0,259.0,0.0,555.0,0.6818181818181818,0.04779411764705882
272,511,0.00012558698654174805,False,13.0,260.0,0.0,554.0,0.6805896805896806,0.047619047619047616
273,679,0.00012370944023132324,False,13.0,261.0,0.0,553.0,0.6793611793611793,0.04744525547445255
274,45,0.00012143083586124703,False,13.0,262.0,0.0,552.0,0.6781326781326781,0.04727272727272727
275,227,0.0001211401613545604,False,13.0,263.0,0.0,551.0,0.6769041769041769,0.04710144927536232
276,385,0.00012104280904168263,False,13.0,264.0,0.0,550.0,0.6756756756756757,0.04693140794223827
277,568,0.00012019296991638839,False,13.0,265.0,0.0,549.0,0.6744471744471745,0.046762589928057555
278,456,0.00011934443318750709,False,13.0,266.0,0.0,548.0,0.6732186732186732,0.04659498207885305
279,314,0.00011914064816664904,False,13.0,267.0,0.0,547.0,0.671990171990172,0.04642857142857143
280,404,0.00011586800974328071,False,13.0,268.0,0.0,546.0,0.6707616707616708,0.046263345195729534
281,657,0.00011538591206772253,False,13.0,269.0,0.0,545.0,0.6695331695331695,0.04609929078014184
282,608,0.00011311443813610822,False,13.0,270.0,0.0,544.0,0.6683046683046683,0.045936395759717315
283,269,0.00011309071123832837,False,13.0,271.0,0.0,543.0,0.6670761670761671,0.045774647887323945
284,94,0.00011268118396401405,False,13.0,272.0,0.0,542.0,0.6658476658476659,0.0456140350877193
285,464,0.00010638854291755706,False,13.0,273.0,0.0,541.0,0.6646191646191646,0.045454545454545456
286,772,0.00010630972974468023,False,13.0,274.0,0.0,540.0,0.6633906633906634,0.04529616724738676
287,782,0.00010573380859568715,False,13.0,275.0,0.0,539.0,0.6621621621621622,0.04513888888888889
288,654,0.00010382875188952312,False,13.0,276.0,0.0,538.0,0.6609336609336609,0.04498269896193772
289,442,0.00010139223013538867,False,13.0,277.0,0.0,537.0,0.6597051597051597,0.04482758620689655
290,569,0.00010112945892615244,False,13.0,278.0,0.0,536.0,0.6584766584766585,0.044673539518900345
291,577,9.940429299604148e-05,False,13.0,279.0,0.0,535.0,0.6572481572481572,0.04452054794520548
292,124,9.825106826610863e-05,False,13.0,280.0,0.0,534.0,0.6560196560196561,0.04436860068259386
293,38,9.736475476529449e-05,False,13.0,281.0,0.0,533.0,0.6547911547911548,0.04421768707482993
294,87,9.591570415068418e-05,False,13.0,282.0,0.0,532.0,0.6535626535626535,0.04406779661016949
295,135,9.585452789906412e-05,False,13.0,283.0,0.0,531.0,0.6523341523341524,0.04391891891891892
296,805,9.379242692375556e-05,False,13.0,284.0,0.0,530.0,0.6511056511056511,0.04377104377104377
297,732,9.07712455955334e-05,False,13.0,285.0,0.0,529.0,0.6498771498771498,0.0436241610738255
298,123,9.017804404720664e-05,False,13.0,286.0,0.0,528.0,0.6486486486486487,0.043478260869565216
299,764,8.713830902706832e-05,False,13.0,287.0,0.0,527.0,0.6474201474201474,0.043333333333333335
300,31,8.600411092629656e-05,False,13.0,288.0,0.0,526.0,0.6461916461916462,0.04318936877076412
301,12,8.561833237763494e-05,False,13.0,289.0,0.0,525.0,0.644963144963145,0.04304635761589404
302,363,8.540556882508099e-05,False,13.0,290.0,0.0,524.0,0.6437346437346437,0.0429042904290429
303,369,8.3916776929982e-05,False,13.0,291.0,0.0,523.0,0.6425061425061425,0.04276315789473684
304,705,8.238469308707863e-05,False,13.0,292.0,0.0,522.0,0.6412776412776413,0.04262295081967213
305,262,8.231880201492459e-05,False,13.0,293.0,0.0,521.0,0.64004914004914,0.042483660130718956
306,802,8.134353993227705e-05,False,13.0,294.0,0.0,520.0,0.6388206388206388,0.04234527687296417
307,339,8.122447616187856e-05,False,13.0,295.0,0.0,519.0,0.6375921375921376,0.04220779220779221
308,186,8.11217469163239e-05,False,13.0,296.0,0.0,518.0,0.6363636363636364,0.042071197411003236
309,271,7.935403846204281e-05,False,13.0,297.0,0.0,517.0,0.6351351351351351,0.041935483870967745
310,411,7.76744564063847e-05,False,13.0,298.0,0.0,516.0,0.6339066339066339,0.04180064308681672
311,145,7.449362601619214e-05,False,13.0,299.0,0.0,515.0,0.6326781326781327,0.041666666666666664
312,771,7.356552669079974e-05,False,13.0,300.0,0.0,514.0,0.6314496314496314,0.04153354632587859
313,573,7.205648580566049e-05,False,13.0,301.0,0.0,513.0,0.6302211302211302,0.041401273885350316
314,709,7.202564302133396e-05,False,13.0,302.0,0.0,512.0,0.628992628992629,0.04126984126984127
315,644,7.117287168512121e-05,False,13.0,303.0,0.0,511.0,0.6277641277641277,0.04113924050632911
316,222,7.110319711500779e-05,False,13.0,304.0,0.0,510.0,0.6265356265356266,0.04100946372239748
317,678,7.10791937308386e-05,False,13.0,305.0,0.0,509.0,0.6253071253071253,0.040880503144654086
318,703,7.052699220366776e-05,False,13.0,306.0,0.0,508.0,0.6240786240786241,0.04075235109717868
319,264,7.040824857540429e-05,False,13.0,307.0,0.0,507.0,0.6228501228501229,0.040625
320,708,7.007565000094473e-05,False,13.0,308.0,0.0,506.0,0.6216216216216216,0.040498442367601244
321,673,6.928005313966423e-05,False,13.0,309.0,0.0,505.0,0.6203931203931204,0.040372670807453416
322,199,6.87761275912635e-05,False,13.0,310.0,0.0,504.0,0.6191646191646192,0.04024767801857585
323,515,6.869503704365343e-05,False,13.0,311.0,0.0,503.0,0.6179361179361179,0.040123456790123455
324,535,6.868901255074888e-05,False,13.0,312.0,0.0,502.0,0.6167076167076168,0.04
325,686,6.841189315309748e-05,False,13.0,313.0,0.0,501.0,0.6154791154791155,0.03987730061349693
326,275,6.777691305615008e-05,False,13.0,314.0,0.0,500.0,0.6142506142506142,0.039755351681957186
327,204,6.706616841256618e-05,False,13.0,315.0,0.0,499.0,0.6130221130221131,0.039634146341463415
328,268,6.706527346977964e-05,False,13.0,316.0,0.0,498.0,0.6117936117936118,0.03951367781155015
329,714,6.695395131828263e-05,False,13.0,317.0,0.0,497.0,0.6105651105651105,0.03939393939393939
330,587,6.682286038994789e-05,False,13.0,318.0,0.0,496.0,0.6093366093366094,0.03927492447129909
331,246,6.681674130959436e-05,False,13.0,319.0,0.0,495.0,0.6081081081081081,0.0391566265060241
332,680,6.60163932479918e-05,False,13.0,320.0,0.0,494.0,0.6068796068796068,0.03903903903903904
333,235,6.575632141903043e-05,False,13.0,321.0,0.0,493.0,0.6056511056511057,0.038922155688622756
334,595,6.506819045171142e-05,False,13.0,322.0,0.0,492.0,0.6044226044226044,0.03880597014925373
335,638,6.492580723715946e-05,False,13.0,323.0,0.0,491.0,0.6031941031941032,0.03869047619047619
336,630,6.464962643804029e-05,False,13.0,324.0,0.0,490.0,0.601965601965602,0.03857566765578635
337,738,6.371516064973548e-05,False,13.0,325.0,0.0,489.0,0.6007371007371007,0.038461538461538464
338,304,6.109426612965763e-05,False,13.0,326.0,0.0,488.0,0.5995085995085995,0.038348082595870206
339,263,5.987540862406604e-05,False,13.0,327.0,0.0,487.0,0.5982800982800983,0.03823529411764706
340,510,5.928675091126934e-05,False,13.0,328.0,0.0,486.0,0.597051597051597,0.03812316715542522
341,88,5.839626828674227e-05,False,13.0,329.0,0.0,485.0,0.5958230958230958,0.038011695906432746
342,206,5.78102954023052e-05,False,13.0,330.0,0.0,484.0,0.5945945945945946,0.037900874635568516
343,807,5.746537135564722e-05,False,13.0,331.0,0.0,483.0,0.5933660933660934,0.0377906976744186
344,372,5.673524719895795e-05,False,13.0,332.0,0.0,482.0,0.5921375921375921,0.03768115942028986
345,528,5.647989746648818e-05,False,13.0,333.0,0.0,481.0,0.5909090909090909,0.03757225433526012
346,25,5.611925371340476e-05,False,13.0,334.0,0.0,480.0,0.5896805896805897,0.037463976945244955
347,8,5.570860957959667e-05,False,13.0,335.0,0.0,479.0,0.5884520884520884,0.03735632183908046
348,559,5.543747101910412e-05,False,13.0,336.0,0.0,478.0,0.5872235872235873,0.03724928366762178
349,575,5.5312630138359964e-05,False,13.0,337.0,0.0,477.0,0.585995085995086,0.037142857142857144
350,301,5.489118484547362e-05,False,13.0,338.0,0.0,476.0,0.5847665847665847,0.037037037037037035
351,599,5.464293644763529e-05,False,13.0,339.0,0.0,475.0,0.5835380835380836,0.036931818181818184
352,140,5.424976916401647e-05,False,13.0,340.0,0.0,474.0,0.5823095823095823,0.036827195467422094
353,35,5.424625123851001e-05,False,13.0,341.0,0.0,473.0,0.581081081081081,0.03672316384180791
354,648,5.246927685220726e-05,False,13.0,342.0,0.0,472.0,0.5798525798525799,0.036619718309859155
355,229,5.177561251912266e-05,False,13.0,343.0,0.0,471.0,0.5786240786240786,0.03651685393258427
356,754,5.169336509425193e-05,False,13.0,344.0,0.0,470.0,0.5773955773955773,0.036414565826330535
357,207,5.1118659030180424e-05,False,13.0,345.0,0.0,469.0,0.5761670761670762,0.036312849162011177
358,321,5.059567411080934e-05,False,13.0,346.0,0.0,468.0,0.5749385749385749,0.036211699164345405
359,671,5.0137725338572636e-05,False,13.0,347.0,0.0,467.0,0.5737100737100738,0.03611111111111111
360,512,4.882449138676748e-05,False,13.0,348.0,0.0,466.0,0.5724815724815725,0.036011080332409975
361,641,4.842250200454146e-05,False,13.0,349.0,0.0,465.0,0.5712530712530712,0.03591160220994475
362,400,4.8157238779822364e-05,False,13.0,350.0,0.0,464.0,0.5700245700245701,0.03581267217630854
363,476,4.743885074276477e-05,False,13.0,351.0,0.0,463.0,0.5687960687960688,0.03571428571428571
364,254,4.689359775511548e-05,False,13.0,352.0,0.0,462.0,0.5675675675675675,0.03561643835616438
365,804,4.580861786962487e-05,False,13.0,353.0,0.0,461.0,0.5663390663390664,0.03551912568306011
366,617,4.511227234615944e-05,False,13.0,354.0,0.0,460.0,0.5651105651105651,0.035422343324250684
367,327,4.474682282307185e-05,False,13.0,355.0,0.0,459.0,0.5638820638820639,0.035326086956521736
368,665,4.46363483206369e-05,False,13.0,356.0,0.0,458.0,0.5626535626535627,0.03523035230352303
369,375,4.400555553729646e-05,False,13.0,357.0,0.0,457.0,0.5614250614250614,0.03513513513513514
370,380,4.400307807372883e-05,False,13.0,358.0,0.0,456.0,0.5601965601965602,0.03504043126684636
371,14,4.367759538581595e-05,False,13.0,359.0,0.0,455.0,0.558968058968059,0.03494623655913978
372,97,4.294175232644193e-05,False,13.0,360.0,0.0,454.0,0.5577395577395577,0.03485254691689008
373,334,4.198955139145255e-05,False,13.0,361.0,0.0,453.0,0.5565110565110565,0.034759358288770054
374,391,4.168063242104836e-05,False,13.0,362.0,0.0,452.0,0.5552825552825553,0.034666666666666665
375,113,3.942097828257829e-05,False,13.0,363.0,0.0,451.0,0.5540540540540541,0.034574468085106384
376,794,3.922331234207377e-05,False,13.0,364.0,0.0,450.0,0.5528255528255528,0.034482758620689655
377,506,3.910968734999187e-05,False,13.0,365.0,0.0,449.0,0.5515970515970516,0.03439153439153439
378,668,3.8695172406733036e-05,False,13.0,366.0,0.0,448.0,0.5503685503685504,0.03430079155672823
379,600,3.86841747967992e-05,False,13.0,367.0,0.0,447.0,0.5491400491400491,0.034210526315789476
380,401,3.83042570319958e-05,False,13.0,368.0,0.0,446.0,0.547911547911548,0.03412073490813648
381,437,3.791681956499815e-05,False,13.0,369.0,0.0,445.0,0.5466830466830467,0.034031413612565446
382,161,3.7191741284914315e-05,False,13.0,370.0,0.0,444.0,0.5454545454545454,0.033942558746736295
383,419,3.7052715924801305e-05,False,13.0,371.0,0.0,443.0,0.5442260442260443,0.033854166666666664
384,455,3.697865759022534e-05,False,13.0,372.0,0.0,442.0,0.542997542997543,0.033766233766233764
385,735,3.6839199310634285e-05,False,13.0,373.0,0.0,441.0,0.5417690417690417,0.03367875647668394
386,423,3.675255720736459e-05,False,13.0,374.0,0.0,440.0,0.5405405405405406,0.03359173126614987
387,810,3.6634453863371164e-05,False,13.0,375.0,0.0,439.0,0.5393120393120393,0.03350515463917526
388,627,3.6598870792659e-05,False,13.0,376.0,0.0,438.0,0.538083538083538,0.033419023136246784
389,203,3.654143074527383e-05,False,13.0,377.0,0.0,437.0,0.5368550368550369,0.03333333333333333
390,406,3.648779966169968e-05,False,13.0,378.0,0.0,436.0,0.5356265356265356,0.03324808184143223
391,809,3.5767767258221284e-05,False,13.0,379.0,0.0,435.0,0.5343980343980343,0.03316326530612245
392,780,3.4987690014531836e-05,False,13.0,380.0,0.0,434.0,0.5331695331695332,0.03307888040712468
393,258,3.4965676604770124e-05,False,13.0,381.0,0.0,433.0,0.5319410319410319,0.03299492385786802
394,358,3.467031638137996e-05,False,13.0,382.0,0.0,432.0,0.5307125307125307,0.03291139240506329
395,717,3.393313454580493e-05,False,13.0,383.0,0.0,431.0,0.5294840294840295,0.03282828282828283
396,474,3.296489376225509e-05,False,13.0,384.0,0.0,430.0,0.5282555282555282,0.0327455919395466
397,101,3.215305332560092e-05,False,13.0,385.0,0.0,429.0,0.527027027027027,0.032663316582914576
398,550,3.1917868909658864e-05,False,13.0,386.0,0.0,428.0,0.5257985257985258,0.03258145363408521
399,354,3.181927604600787e-05,False,13.0,387.0,0.0,427.0,0.5245700245700246,0.0325
400,147,3.083535921177827e-05,False,13.0,388.0,0.0,426.0,0.5233415233415234,0.032418952618453865
401,507,3.0690109269926324e-05,False,13.0,389.0,0.0,425.0,0.5221130221130221,0.03233830845771144
402,715,3.051535168197006e-05,False,13.0,390.0,0.0,424.0,0.5208845208845209,0.03225806451612903
403,95,3.0271959985839203e-05,False,13.0,391.0,0.0,423.0,0.5196560196560197,0.03217821782178218
404,285,3.01898799079936e-05,False,13.0,392.0,0.0,422.0,0.5184275184275184,0.03209876543209877
405,370,2.960112578875851e-05,False,13.0,393.0,0.0,421.0,0.5171990171990172,0.03201970443349754
406,295,2.9560053008026443e-05,False,13.0,394.0,0.0,420.0,0.515970515970516,0.03194103194103194
407,701,2.919037979154382e-05,False,13.0,395.0,0.0,419.0,0.5147420147420148,0.031862745098039214
408,660,2.9085978894727305e-05,False,13.0,396.0,0.0,418.0,0.5135135135135135,0.03178484107579462
409,619,2.8769303753506392e-05,False,13.0,397.0,0.0,417.0,0.5122850122850123,0.03170731707317073
410,462,2.8733138606185094e-05,False,13.0,398.0,0.0,416.0,0.5110565110565111,0.031630170316301706
411,367,2.8696635126834735e-05,False,13.0,399.0,0.0,415.0,0.5098280098280098,0.03155339805825243
412,803,2.837786632881034e-05,False,13.0,400.0,0.0,414.0,0.5085995085995086,0.031476997578692496
413,72,2.837137071765028e-05,False,13.0,401.0,0.0,413.0,0.5073710073710074,0.03140096618357488
414,84,2.81392021861393e-05,False,13.0,402.0,0.0,412.0,0.5061425061425061,0.03132530120481928
415,209,2.7902813599212095e-05,False,13.0,403.0,0.0,411.0,0.504914004914005,0.03125
416,576,2.778350972221233e-05,False,13.0,404.0,0.0,410.0,0.5036855036855037,0.03117505995203837
417,174,2.7039641281589866e-05,False,13.0,405.0,0.0,409.0,0.5024570024570024,0.03110047846889952
418,89,2.69281354121631e-05,False,13.0,406.0,0.0,408.0,0.5012285012285013,0.031026252983293555
419,37,2.6850486392504536e-05,False,13.0,407.0,0.0,407.0,0.5,0.030952380952380953
420,786,2.665213105501607e-05,False,13.0,408.0,0.0,406.0,0.4987714987714988,0.030878859857482184
421,80,2.6643516321200877e-05,False,13.0,409.0,0.0,405.0,0.4975429975429975,0.030805687203791468
422,176,2.654131458257325e-05,False,13.0,410.0,0.0,404.0,0.4963144963144963,0.030732860520094562
423,238,2.6537541998550296e-05,False,13.0,411.0,0.0,403.0,0.4950859950859951,0.030660377358490566
424,394,2.6475332560949028e-05,False,13.0,412.0,0.0,402.0,0.49385749385749383,0.03058823529411765
425,631,2.6223769964417443e-05,False,13.0,413.0,0.0,401.0,0.4926289926289926,0.03051643192488263
426,265,2.6041738237836398e-05,False,13.0,414.0,0.0,400.0,0.4914004914004914,0.03044496487119438
427,388,2.6011755835497752e-05,False,13.0,415.0,0.0,399.0,0.49017199017199015,0.030373831775700934
428,194,2.5903451387421228e-05,False,13.0,416.0,0.0,398.0,0.48894348894348894,0.030303030303030304
429,250,2.5797764465096407e-05,False,13.0,417.0,0.0,397.0,0.4877149877149877,0.030232558139534883
430,504,2.5365250621689484e-05,False,13.0,418.0,0.0,396.0,0.4864864864864865,0.030162412993039442
431,699,2.5303881557192653e-05,False,13.0,419.0,0.0,395.0,0.48525798525798525,0.03009259259259259
432,798,2.4822104023769498e-05,False,13.0,420.0,0.0,394.0,0.48402948402948404,0.03002309468822171
433,125,2.4814720745780505e-05,False,13.0,421.0,0.0,393.0,0.4828009828009828,0.029953917050691243
434,538,2.4794186174403876e-05,False,13.0,422.0,0.0,392.0,0.48157248157248156,0.029885057471264367
435,628,2.478697570040822e-05,False,13.0,423.0,0.0,391.0,0.48034398034398035,0.02981651376146789
436,736,2.4717741325730458e-05,False,13.0,424.0,0.0,390.0,0.47911547911547914,0.029748283752860413
437,10,2.464740646246355e-05,False,13.0,425.0,0.0,389.0,0.47788697788697787,0.02968036529680365
438,311,2.4557357392041013e-05,False,13.0,426.0,0.0,388.0,0.47665847665847666,0.029612756264236904
439,50,2.434599446132779e-05,False,13.0,427.0,0.0,387.0,0.47542997542997545,0.029545454545454545
440,157,2.4202374333981425e-05,False,13.0,428.0,0.0,386.0,0.4742014742014742,0.02947845804988662
441,324,2.4026629034779035e-05,False,13.0,429.0,0.0,385.0,0.47297297297297297,0.029411764705882353
442,426,2.3877537387306802e-05,False,13.0,430.0,0.0,384.0,0.47174447174447176,0.029345372460496615
443,720,2.3708671506028622e-05,False,13.0,431.0,0.0,383.0,0.4705159705159705,0.02927927927927928
444,675,2.3610587959410623e-05,False,13.0,432.0,0.0,382.0,0.4692874692874693,0.029213483146067417
445,243,2.354376374569256e-05,False,13.0,433.0,0.0,381.0,0.4680589680589681,0.02914798206278027
446,223,2.3538104869658127e-05,False,13.0,434.0,0.0,380.0,0.4668304668304668,0.029082774049217
447,248,2.3065629648044705e-05,False,13.0,435.0,0.0,379.0,0.4656019656019656,0.029017857142857144
448,200,2.2968233679421246e-05,False,13.0,436.0,0.0,378.0,0.4643734643734644,0.028953229398663696
449,527,2.2833439288660884e-05,False,13.0,437.0,0.0,377.0,0.4631449631449631,0.028888888888888888
450,283,2.2739322957932018e-05,False,13.0,438.0,0.0,376.0,0.4619164619164619,0.028824833702882482
451,21,2.2285770683083683e-05,False,13.0,439.0,0.0,375.0,0.4606879606879607,0.028761061946902654
452,131,2.2218329831957817e-05,False,13.0,440.0,0.0,374.0,0.4594594594594595,0.02869757174392936
453,90,2.193377622461412e-05,False,13.0,441.0,0.0,373.0,0.4582309582309582,0.028634361233480177
454,310,2.1780528186354786e-05,False,13.0,442.0,0.0,372.0,0.457002457002457,0.02857142857142857
455,53,2.1746884158346802e-05,False,13.0,443.0,0.0,371.0,0.4557739557739558,0.02850877192982456
456,366,2.169507570215501e-05,False,13.0,444.0,0.0,370.0,0.45454545454545453,0.028446389496717725
457,24,2.1644733351422474e-05,False,13.0,445.0,0.0,369.0,0.4533169533169533,0.028384279475982533
458,601,2.1553791157202795e-05,False,13.0,446.0,0.0,368.0,0.4520884520884521,0.02832244008714597
459,416,2.1533305698540062e-05,False,13.0,447.0,0.0,367.0,0.45085995085995084,0.02826086956521739
460,603,2.114871676894836e-05,False,13.0,448.0,0.0,366.0,0.44963144963144963,0.028199566160520606
461,444,2.106747342622839e-05,False,13.0,449.0,0.0,365.0,0.4484029484029484,0.02813852813852814
462,729,2.0480805687839165e-05,False,13.0,450.0,0.0,364.0,0.44717444717444715,0.028077753779697623
463,433,2.039389801211655e-05,False,13.0,451.0,0.0,363.0,0.44594594594594594,0.028017241379310345
464,279,2.0332510757725686e-05,False,13.0,452.0,0.0,362.0,0.44471744471744473,0.02795698924731183
465,389,2.0007340935990214e-05,False,13.0,453.0,0.0,361.0,0.44348894348894347,0.027896995708154508
466,93,1.9815761334029958e-05,False,13.0,454.0,0.0,360.0,0.44226044226044225,0.027837259100642397
467,211,1.9785416952800006e-05,False,13.0,455.0,0.0,359.0,0.44103194103194104,0.027777777777777776
468,239,1.9694751244969666e-05,False,13.0,456.0,0.0,358.0,0.4398034398034398,0.02771855010660981
469,816,1.952742059074808e-05,False,13.0,457.0,0.0,357.0,0.43857493857493857,0.027659574468085105
470,92,1.888466977106873e-05,False,13.0,458.0,0.0,356.0,0.43734643734643736,0.027600849256900213
471,13,1.8703412933973595e-05,False,13.0,459.0,0.0,355.0,0.43611793611793614,0.02754237288135593
472,273,1.8287859347765334e-05,False,13.0,460.0,0.0,354.0,0.4348894348894349,0.02748414376321353
473,516,1.8016888134297915e-05,False,13.0,461.0,0.0,353.0,0.43366093366093367,0.027426160337552744
474,590,1.800893369363621e-05,False,13.0,462.0,0.0,352.0,0.43243243243243246,0.02736842105263158
475,346,1.7989073967328295e-05,False,13.0,463.0,0.0,351.0,0.4312039312039312,0.0273109243697479
476,746,1.798634730221238e-05,False,13.0,464.0,0.0,350.0,0.42997542997543,0.027253668763102725
477,487,1.7895596101880074e-05,False,13.0,465.0,0.0,349.0,0.42874692874692877,0.027196652719665274
478,26,1.7859605577541515e-05,False,13.0,466.0,0.0,348.0,0.4275184275184275,0.027139874739039668
479,580,1.773996336851269e-05,False,13.0,467.0,0.0,347.0,0.4262899262899263,0.027083333333333334
480,386,1.759607039275579e-05,False,13.0,468.0,0.0,346.0,0.4250614250614251,0.02702702702702703
481,297,1.7576681784703396e-05,False,13.0,469.0,0.0,345.0,0.4238329238329238,0.026970954356846474
482,499,1.742721360642463e-05,False,13.0,470.0,0.0,344.0,0.4226044226044226,0.026915113871635612
483,796,1.689838245511055e-05,False,13.0,471.0,0.0,343.0,0.4213759213759214,0.026859504132231406
484,146,1.6837493603816256e-05,False,13.0,472.0,0.0,342.0,0.4201474201474201,0.026804123711340205
485,260,1.683194022916723e-05,False,13.0,473.0,0.0,341.0,0.4189189189189189,0.026748971193415638
486,591,1.6831681932671927e-05,False,13.0,474.0,0.0,340.0,0.4176904176904177,0.026694045174537988
487,272,1.6741791114327498e-05,False,13.0,475.0,0.0,339.0,0.41646191646191644,0.02663934426229508
488,7,1.6596715795458294e-05,False,13.0,476.0,0.0,338.0,0.4152334152334152,0.026584867075664622
489,434,1.6539896023459733e-05,False,13.0,477.0,0.0,337.0,0.414004914004914,0.026530612244897958
490,300,1.6478195902891457e-05,False,13.0,478.0,0.0,336.0,0.41277641277641275,0.026476578411405296
491,536,1.6454860087833367e-05,False,13.0,479.0,0.0,335.0,0.41154791154791154,0.026422764227642278
492,451,1.6443438653368503e-05,False,13.0,480.0,0.0,334.0,0.4103194103194103,0.02636916835699797
493,513,1.604853241587989e-05,False,13.0,481.0,0.0,333.0,0.4090909090909091,0.02631578947368421
494,142,1.580370189913083e-05,False,13.0,482.0,0.0,332.0,0.40786240786240785,0.026262626262626262
495,775,1.566953505971469e-05,False,13.0,483.0,0.0,331.0,0.40663390663390664,0.02620967741935484
496,359,1.5396322851302102e-05,False,13.0,484.0,0.0,330.0,0.40540540540540543,0.026156941649899398
497,774,1.528155007690657e-05,False,13.0,485.0,0.0,329.0,0.40417690417690416,0.02610441767068273
498,677,1.5241728760884143e-05,False,13.0,486.0,0.0,328.0,0.40294840294840295,0.026052104208416832
499,158,1.5120174793992192e-05,False,13.0,487.0,0.0,327.0,0.40171990171990174,0.026
500,66,1.5093781257746741e-05,False,13.0,488.0,0.0,326.0,0.4004914004914005,0.02594810379241517
501,571,1.4789325177844148e-05,False,13.0,489.0,0.0,325.0,0.39926289926289926,0.025896414342629483
502,225,1.4734490832779557e-05,False,13.0,490.0,0.0,324.0,0.39803439803439805,0.02584493041749503
503,716,1.4428335816774052e-05,False,13.0,491.0,0.0,323.0,0.3968058968058968,0.025793650793650792
504,467,1.4335029845824465e-05,False,13.0,492.0,0.0,322.0,0.3955773955773956,0.02574257425742574
505,292,1.4254774214350618e-05,False,13.0,493.0,0.0,321.0,0.39434889434889436,0.025691699604743084
506,558,1.4117403225100134e-05,False,13.0,494.0,0.0,320.0,0.3931203931203931,0.02564102564102564
507,533,1.385151881549973e-05,False,13.0,495.0,0.0,319.0,0.3918918918918919,0.025590551181102362
508,800,1.3838024642609525e-05,False,13.0,496.0,0.0,318.0,0.3906633906633907,0.025540275049115914
509,531,1.373788109049201e-05,False,13.0,497.0,0.0,317.0,0.3894348894348894,0.025490196078431372
510,480,1.3710669918509666e-05,False,13.0,498.0,0.0,316.0,0.3882063882063882,0.025440313111545987
511,103,1.3593169569503516e-05,False,13.0,499.0,0.0,315.0,0.386977886977887,0.025390625
512,360,1.3470997146214359e-05,False,13.0,500.0,0.0,314.0,0.3857493857493858,0.025341130604288498
513,604,1.3400984244071878e-05,False,13.0,501.0,0.0,313.0,0.3845208845208845,0.02529182879377432
514,585,1.3369237422011793e-05,False,13.0,502.0,0.0,312.0,0.3832923832923833,0.02524271844660194
515,445,1.3335683433979284e-05,False,13.0,503.0,0.0,311.0,0.3820638820638821,0.025193798449612403
516,187,1.3197084626881406e-05,False,13.0,504.0,0.0,310.0,0.3808353808353808,0.025145067698259187
517,722,1.289661304326728e-05,False,13.0,505.0,0.0,309.0,0.3796068796068796,0.025096525096525095
518,766,1.2746775610139593e-05,False,13.0,506.0,0.0,308.0,0.3783783783783784,0.025048169556840076
519,450,1.2727923603961244e-05,False,13.0,507.0,0.0,307.0,0.37714987714987713,0.025
520,546,1.267014340555761e-05,False,13.0,508.0,0.0,306.0,0.3759213759213759,0.02495201535508637
521,691,1.2564699318318162e-05,False,13.0,509.0,0.0,305.0,0.3746928746928747,0.02490421455938697
522,282,1.251014145964291e-05,False,13.0,510.0,0.0,304.0,0.37346437346437344,0.0248565965583174
523,661,1.2432819858076982e-05,False,13.0,511.0,0.0,303.0,0.37223587223587223,0.02480916030534351
524,521,1.2432369658199605e-05,False,13.0,512.0,0.0,302.0,0.371007371007371,0.024761904761904763
525,544,1.2339585737208836e-05,False,13.0,513.0,0.0,301.0,0.36977886977886976,0.024714828897338403
526,183,1.223939034389332e-05,False,13.0,514.0,0.0,300.0,0.36855036855036855,0.024667931688804556
527,392,1.2119487109885085e-05,False,13.0,515.0,0.0,299.0,0.36732186732186733,0.02462121212121212
528,261,1.202929070132086e-05,False,13.0,516.0,0.0,298.0,0.36609336609336607,0.024574669187145556
529,430,1.1973357686656527e-05,False,13.0,517.0,0.0,297.0,0.36486486486486486,0.024528301886792454
530,822,1.1918934433197137e-05,False,13.0,518.0,0.0,296.0,0.36363636363636365,0.02448210922787194
531,60,1.185282690130407e-05,False,13.0,519.0,0.0,295.0,0.36240786240786244,0.02443609022556391
532,47,1.1726284355972894e-05,False,13.0,520.0,0.0,294.0,0.36117936117936117,0.024390243902439025
533,664,1.1560018720047083e-05,False,13.0,521.0,0.0,293.0,0.35995085995085996,0.024344569288389514
534,71,1.1449598787294235e-05,False,13.0,522.0,0.0,292.0,0.35872235872235875,0.024299065420560748
535,606,1.1267316949670203e-05,False,13.0,523.0,0.0,291.0,0.3574938574938575,0.024253731343283583
536,582,1.1189906217623502e-05,False,13.0,524.0,0.0,290.0,0.35626535626535627,0.024208566108007448
537,228,1.1092697604908608e-05,False,13.0,525.0,0.0,289.0,0.35503685503685506,0.024163568773234202
538,114,1.1000349331879988e-05,False,13.0,526.0,0.0,288.0,0.3538083538083538,0.02411873840445269
539,317,1.0720102181949187e-05,False,13.0,527.0,0.0,287.0,0.3525798525798526,0.024074074074074074
540,305,1.02539033832727e-05,False,13.0,528.0,0.0,286.0,0.35135135135135137,0.024029574861367836
541,175,1.0213439963990822e-05,False,13.0,529.0,0.0,285.0,0.3501228501228501,0.023985239852398525
542,63,9.996847438742407e-06,False,13.0,530.0,0.0,284.0,0.3488943488943489,0.02394106813996317
543,43,9.963600859919097e-06,False,13.0,531.0,0.0,283.0,0.3476658476658477,0.02389705882352941
544,486,9.941495591192506e-06,False,13.0,532.0,0.0,282.0,0.3464373464373464,0.023853211009174313
545,322,9.887440683087334e-06,False,13.0,533.0,0.0,281.0,0.3452088452088452,0.023809523809523808
546,820,9.88664851320209e-06,False,13.0,534.0,0.0,280.0,0.343980343980344,0.02376599634369287
547,193,9.78987827693345e-06,False,13.0,535.0,0.0,279.0,0.34275184275184273,0.023722627737226276
548,443,9.773590136319399e-06,False,13.0,536.0,0.0,278.0,0.3415233415233415,0.023679417122040074
549,115,9.688176760391798e-06,False,13.0,537.0,0.0,277.0,0.3402948402948403,0.023636363636363636
550,299,9.586873602529522e-06,False,13.0,538.0,0.0,276.0,0.33906633906633904,0.023593466424682397
551,490,9.510299605608452e-06,False,13.0,539.0,0.0,275.0,0.33783783783783783,0.02355072463768116
552,371,9.409026461071335e-06,False,13.0,540.0,0.0,274.0,0.3366093366093366,0.023508137432188065
553,801,9.383111319039017e-06,False,13.0,541.0,0.0,273.0,0.3353808353808354,0.023465703971119134
554,698,9.268251233152114e-06,False,13.0,542.0,0.0,272.0,0.33415233415233414,0.023423423423423424
555,470,9.203574336424936e-06,False,13.0,543.0,0.0,271.0,0.33292383292383293,0.023381294964028777
556,741,9.025724466482643e-06,False,13.0,544.0,0.0,270.0,0.3316953316953317,0.02333931777378815
557,76,8.973575859272387e-06,False,13.0,545.0,0.0,269.0,0.33046683046683045,0.023297491039426525
558,818,8.94870754564181e-06,False,13.0,546.0,0.0,268.0,0.32923832923832924,0.023255813953488372
559,315,8.94172080734279e-06,False,13.0,547.0,0.0,267.0,0.32800982800982803,0.023214285714285715
560,286,8.863390576152597e-06,False,13.0,548.0,0.0,266.0,0.32678132678132676,0.023172905525846704
561,189,8.775372407399118e-06,False,13.0,549.0,0.0,265.0,0.32555282555282555,0.023131672597864767
562,213,8.760329365031794e-06,False,13.0,550.0,0.0,264.0,0.32432432432432434,0.023090586145648313
563,520,8.74703073350247e-06,False,13.0,551.0,0.0,263.0,0.3230958230958231,0.02304964539007092
564,150,8.71025440574158e-06,False,13.0,552.0,0.0,262.0,0.32186732186732187,0.023008849557522124
565,133,8.692073606653139e-06,False,13.0,553.0,0.0,261.0,0.32063882063882065,0.022968197879858657
566,409,8.246341167250648e-06,False,13.0,554.0,0.0,260.0,0.3194103194103194,0.02292768959435626
567,461,8.21626053948421e-06,False,13.0,555.0,0.0,259.0,0.3181818181818182,0.022887323943661973
568,530,8.2009164543706e-06,False,13.0,556.0,0.0,258.0,0.31695331695331697,0.022847100175746926
569,407,8.12675898487214e-06,False,13.0,557.0,0.0,257.0,0.3157248157248157,0.02280701754385965
570,454,8.042634362936951e-06,False,13.0,558.0,0.0,256.0,0.3144963144963145,0.02276707530647986
571,30,8.01870828581741e-06,False,13.0,559.0,0.0,255.0,0.3132678132678133,0.022727272727272728
572,448,8.000971320143435e-06,False,13.0,560.0,0.0,254.0,0.31203931203931207,0.02268760907504363
573,331,7.992018254299182e-06,False,13.0,561.0,0.0,253.0,0.3108108108108108,0.02264808362369338
574,655,7.957240086398087e-06,False,13.0,562.0,0.0,252.0,0.3095823095823096,0.022608695652173914
575,54,7.902058314357419e-06,False,13.0,563.0,0.0,251.0,0.3083538083538084,0.022569444444444444
576,266,7.891401764936745e-06,False,13.0,564.0,0.0,250.0,0.3071253071253071,0.022530329289428077
577,432,7.805826498952229e-06,False,13.0,565.0,0.0,249.0,0.3058968058968059,0.02249134948096886
578,290,7.773533070576377e-06,False,13.0,566.0,0.0,248.0,0.3046683046683047,0.022452504317789293
579,547,7.742540219624061e-06,False,13.0,567.0,0.0,247.0,0.3034398034398034,0.022413793103448276
580,770,7.632286724401638e-06,False,13.0,568.0,0.0,246.0,0.3022113022113022,0.022375215146299483
581,374,7.623048531968379e-06,False,13.0,569.0,0.0,245.0,0.300982800982801,0.022336769759450172
582,81,7.619836196681717e-06,False,13.0,570.0,0.0,244.0,0.29975429975429974,0.022298456260720412
583,284,7.5508319241635036e-06,False,13.0,571.0,0.0,243.0,0.2985257985257985,0.02226027397260274
584,308,7.4865429269266315e-06,False,13.0,572.0,0.0,242.0,0.2972972972972973,0.022222222222222223
585,181,7.461566838173894e-06,False,13.0,573.0,0.0,241.0,0.29606879606879605,0.02218430034129693
586,5,7.433214250340825e-06,False,13.0,574.0,0.0,240.0,0.29484029484029484,0.022146507666098807
587,676,7.403119070659159e-06,False,13.0,575.0,0.0,239.0,0.2936117936117936,0.022108843537414966
588,132,7.39259303372819e-06,False,13.0,576.0,0.0,238.0,0.29238329238329236,0.022071307300509338
589,169,7.334643669310026e-06,False,13.0,577.0,0.0,237.0,0.29115479115479115,0.022033898305084745
590,440,7.289818313438445e-06,False,13.0,578.0,0.0,236.0,0.28992628992628994,0.021996615905245348
591,329,7.226772595458897e-06,False,13.0,579.0,0.0,235.0,0.28869778869778867,0.02195945945945946
592,79,7.1580848270969e-06,False,13.0,580.0,0.0,234.0,0.28746928746928746,0.021922428330522766
593,152,7.141420155676315e-06,False,13.0,581.0,0.0,233.0,0.28624078624078625,0.021885521885521887
594,477,7.114928848750424e-06,False,13.0,582.0,0.0,232.0,0.28501228501228504,0.021848739495798318
595,294,6.963573014218127e-06,False,13.0,583.0,0.0,231.0,0.28378378378378377,0.02181208053691275
596,424,6.750240572728217e-06,False,13.0,584.0,0.0,230.0,0.28255528255528256,0.021775544388609715
597,278,6.673716598015744e-06,False,13.0,585.0,0.0,229.0,0.28132678132678135,0.021739130434782608
598,565,6.659837708866689e-06,False,13.0,586.0,0.0,228.0,0.2800982800982801,0.021702838063439065
599,685,6.608111107198056e-06,False,13.0,587.0,0.0,227.0,0.2788697788697789,0.021666666666666667
600,156,6.587510597455548e-06,False,13.0,588.0,0.0,226.0,0.27764127764127766,0.021630615640599003
601,338,6.4725845732027665e-06,False,13.0,589.0,0.0,225.0,0.2764127764127764,0.02159468438538206
602,165,6.458981260948349e-06,False,13.0,590.0,0.0,224.0,0.2751842751842752,0.02155887230514096
603,357,6.447712621593382e-06,False,13.0,591.0,0.0,223.0,0.273955773955774,0.02152317880794702
604,540,6.4375258261861745e-06,False,13.0,592.0,0.0,222.0,0.2727272727272727,0.021487603305785124
605,806,6.369277343765134e-06,False,13.0,593.0,0.0,221.0,0.2714987714987715,0.02145214521452145
606,633,6.3119473452388775e-06,False,13.0,594.0,0.0,220.0,0.2702702702702703,0.0214168039538715
607,215,6.107605713623343e-06,False,13.0,595.0,0.0,219.0,0.269041769041769,0.02138157894736842
608,760,6.0371580730134156e-06,False,13.0,596.0,0.0,218.0,0.2678132678132678,0.021346469622331693
609,508,6.03699118073564e-06,False,13.0,597.0,0.0,217.0,0.2665847665847666,0.021311475409836064
610,783,6.003965609124862e-06,False,13.0,598.0,0.0,216.0,0.26535626535626533,0.02127659574468085
611,756,5.896075890632346e-06,False,13.0,599.0,0.0,215.0,0.2641277641277641,0.021241830065359478
612,704,5.849997251061723e-06,False,13.0,600.0,0.0,214.0,0.2628992628992629,0.021207177814029365
613,817,5.833378509123577e-06,False,13.0,601.0,0.0,213.0,0.2616707616707617,0.021172638436482084
614,602,5.823223546030931e-06,False,13.0,602.0,0.0,212.0,0.26044226044226043,0.02113821138211382
615,276,5.64261972613167e-06,False,13.0,603.0,0.0,211.0,0.2592137592137592,0.021103896103896104
616,567,5.640252311422955e-06,False,13.0,604.0,0.0,210.0,0.257985257985258,0.02106969205834684
617,475,5.5963487284316216e-06,False,13.0,605.0,0.0,209.0,0.25675675675675674,0.021035598705501618
618,551,5.567252173932502e-06,False,13.0,606.0,0.0,208.0,0.25552825552825553,0.0210016155088853
619,9,5.520893864741083e-06,False,13.0,607.0,0.0,207.0,0.2542997542997543,0.020967741935483872
620,815,5.492147465702146e-06,False,13.0,608.0,0.0,206.0,0.25307125307125306,0.020933977455716585
621,168,5.442769634100841e-06,False,13.0,609.0,0.0,205.0,0.25184275184275184,0.02090032154340836
622,65,5.358648195397109e-06,False,13.0,610.0,0.0,204.0,0.25061425061425063,0.02086677367576244
623,425,5.272104317555204e-06,False,13.0,611.0,0.0,203.0,0.2493857493857494,0.020833333333333332
624,640,5.257052634988213e-06,False,13.0,612.0,0.0,202.0,0.24815724815724816,0.0208
625,179,5.219824288360542e-06,False,13.0,613.0,0.0,201.0,0.24692874692874692,0.020766773162939296
626,288,5.179000709176762e-06,False,13.0,614.0,0.0,200.0,0.2457002457002457,0.02073365231259968
627,17,5.147364390722942e-06,False,13.0,615.0,0.0,199.0,0.24447174447174447,0.020700636942675158
628,652,5.010509994463064e-06,False,13.0,616.0,0.0,198.0,0.24324324324324326,0.02066772655007949
629,237,4.962896582583198e-06,False,13.0,617.0,0.0,197.0,0.24201474201474202,0.020634920634920634
630,191,4.956284101353958e-06,False,13.0,618.0,0.0,196.0,0.24078624078624078,0.020602218700475437
631,102,4.858627562498441e-06,False,13.0,619.0,0.0,195.0,0.23955773955773957,0.020569620253164556
632,109,4.853963673667749e-06,False,13.0,620.0,0.0,194.0,0.23832923832923833,0.020537124802527645
633,82,4.852103302255273e-06,False,13.0,621.0,0.0,193.0,0.2371007371007371,0.02050473186119874
634,622,4.78290439787088e-06,False,13.0,622.0,0.0,192.0,0.23587223587223588,0.02047244094488189
635,221,4.733443802251713e-06,False,13.0,623.0,0.0,191.0,0.23464373464373464,0.020440251572327043
636,234,4.661324965127278e-06,False,13.0,624.0,0.0,190.0,0.2334152334152334,0.02040816326530612
637,155,4.5859778765589e-06,False,13.0,625.0,0.0,189.0,0.2321867321867322,0.02037617554858934
638,793,4.584242105920566e-06,False,13.0,626.0,0.0,188.0,0.23095823095823095,0.02034428794992175
639,750,4.507436187850544e-06,False,13.0,627.0,0.0,187.0,0.22972972972972974,0.0203125
640,733,4.488630565901985e-06,False,13.0,628.0,0.0,186.0,0.2285012285012285,0.0202808112324493
641,119,4.4400694605428725e-06,False,13.0,629.0,0.0,185.0,0.22727272727272727,0.020249221183800622
642,429,4.4335492930258624e-06,False,13.0,630.0,0.0,184.0,0.22604422604422605,0.02021772939346812
643,252,4.4095013436162844e-06,False,13.0,631.0,0.0,183.0,0.22481572481572482,0.020186335403726708
644,482,4.400238594826078e-06,False,13.0,632.0,0.0,182.0,0.22358722358722358,0.020155038759689922
645,231,4.319272193242796e-06,False,13.0,633.0,0.0,181.0,0.22235872235872237,0.020123839009287926
646,398,4.273525519238319e-06,False,13.0,634.0,0.0,180.0,0.22113022113022113,0.02009273570324575
647,586,4.250750862411223e-06,False,13.0,635.0,0.0,179.0,0.2199017199017199,0.020061728395061727
648,697,4.2295901039324235e-06,False,13.0,636.0,0.0,178.0,0.21867321867321868,0.020030816640986132
649,352,4.219316906528547e-06,False,13.0,637.0,0.0,177.0,0.21744471744471744,0.02
650,639,4.20279502577614e-06,False,13.0,638.0,0.0,176.0,0.21621621621621623,0.019969278033794162
651,162,4.169953626842471e-06,False,13.0,639.0,0.0,175.0,0.214987714987715,0.019938650306748466
652,36,4.160531261732103e-06,False,13.0,640.0,0.0,174.0,0.21375921375921375,0.019908116385911178
653,529,4.145607363170711e-06,False,13.0,641.0,0.0,173.0,0.21253071253071254,0.019877675840978593
654,634,4.023333076474955e-06,False,13.0,642.0,0.0,172.0,0.2113022113022113,0.01984732824427481
655,163,3.931077117158566e-06,False,13.0,643.0,0.0,171.0,0.21007371007371006,0.019817073170731708
656,620,3.8124312595755327e-06,False,13.0,644.0,0.0,170.0,0.20884520884520885,0.0197869101978691
657,484,3.7631994018738624e-06,False,13.0,645.0,0.0,169.0,0.2076167076167076,0.019756838905775075
658,739,3.735060772669385e-06,False,13.0,646.0,0.0,168.0,0.20638820638820637,0.019726858877086494
659,361,3.6705425827676663e-06,False,13.0,647.0,0.0,167.0,0.20515970515970516,0.019696969696969695
660,153,3.6678832202596823e-06,False,13.0,648.0,0.0,166.0,0.20393120393120392,0.019667170953101363
661,230,3.6583078326657414e-06,False,13.0,649.0,0.0,165.0,0.20270270270270271,0.019637462235649546
662,614,3.6528692817228148e-06,False,13.0,650.0,0.0,164.0,0.20147420147420148,0.0196078431372549
663,403,3.644198386609787e-06,False,13.0,651.0,0.0,163.0,0.20024570024570024,0.01957831325301205
664,78,3.5458651836961508e-06,False,13.0,652.0,0.0,162.0,0.19901719901719903,0.019548872180451128
665,556,3.4971326385857537e-06,False,13.0,653.0,0.0,161.0,0.1977886977886978,0.01951951951951952
666,517,3.4778490771714132e-06,False,13.0,654.0,0.0,160.0,0.19656019656019655,0.019490254872563718
667,232,3.4346535358054098e-06,False,13.0,655.0,0.0,159.0,0.19533169533169534,0.019461077844311378
668,6,3.3208978038601344e-06,False,13.0,656.0,0.0,158.0,0.1941031941031941,0.01943198804185351
669,11,3.3201251881109783e-06,False,13.0,657.0,0.0,157.0,0.1928746928746929,0.019402985074626865
670,340,3.2841558095242362e-06,False,13.0,658.0,0.0,156.0,0.19164619164619165,0.019374068554396422
671,52,3.2488021588505944e-06,False,13.0,659.0,0.0,155.0,0.1904176904176904,0.019345238095238096
672,612,3.2432546959171304e-06,False,13.0,660.0,0.0,154.0,0.1891891891891892,0.019316493313521546
673,130,3.203422238584608e-06,False,13.0,661.0,0.0,153.0,0.18796068796068796,0.019287833827893175
674,592,3.170769559801556e-06,False,13.0,662.0,0.0,152.0,0.18673218673218672,0.01925925925925926
675,821,3.1449426387553103e-06,False,13.0,663.0,0.0,151.0,0.1855036855036855,0.019230769230769232
676,566,3.0898518161848187e-06,False,13.0,664.0,0.0,150.0,0.18427518427518427,0.019202363367799114
677,402,3.041251829927205e-06,False,13.0,665.0,0.0,149.0,0.18304668304668303,0.019174041297935103
678,214,3.019729319930775e-06,False,13.0,666.0,0.0,148.0,0.18181818181818182,0.01914580265095729
679,291,2.995715249198838e-06,False,13.0,667.0,0.0,147.0,0.18058968058968058,0.01911764705882353
680,318,2.976157929879264e-06,False,13.0,668.0,0.0,146.0,0.17936117936117937,0.01908957415565345
681,726,2.941745606221957e-06,False,13.0,669.0,0.0,145.0,0.17813267813267813,0.01906158357771261
682,755,2.9160398753447225e-06,False,13.0,670.0,0.0,144.0,0.1769041769041769,0.01903367496339678
683,56,2.855798584278091e-06,False,13.0,671.0,0.0,143.0,0.17567567567567569,0.019005847953216373
684,792,2.833025973814074e-06,False,13.0,672.0,0.0,142.0,0.17444717444717445,0.01897810218978102
685,560,2.813224000419723e-06,False,13.0,673.0,0.0,141.0,0.1732186732186732,0.018950437317784258
686,625,2.8065087462891825e-06,False,13.0,674.0,0.0,140.0,0.171990171990172,0.018922852983988356
687,270,2.749085979303345e-06,False,13.0,675.0,0.0,139.0,0.17076167076167076,0.0188953488372093
688,719,2.707805151658249e-06,False,13.0,676.0,0.0,138.0,0.16953316953316952,0.018867924528301886
689,39,2.68394137492578e-06,False,13.0,677.0,0.0,137.0,0.1683046683046683,0.01884057971014493
690,635,2.6204056666756514e-06,False,13.0,678.0,0.0,136.0,0.16707616707616707,0.01881331403762663
691,351,2.582699607955874e-06,False,13.0,679.0,0.0,135.0,0.16584766584766586,0.01878612716763006
692,743,2.561237579357112e-06,False,13.0,680.0,0.0,134.0,0.16461916461916462,0.01875901875901876
693,819,2.487235178705305e-06,False,13.0,681.0,0.0,133.0,0.16339066339066338,0.018731988472622477
694,350,2.4149035198206548e-06,False,13.0,682.0,0.0,132.0,0.16216216216216217,0.01870503597122302
695,136,2.3649495233257767e-06,False,13.0,683.0,0.0,131.0,0.16093366093366093,0.01867816091954023
696,700,2.3452589630323928e-06,False,13.0,684.0,0.0,130.0,0.1597051597051597,0.018651362984218076
697,216,2.2991475816525053e-06,False,13.0,685.0,0.0,129.0,0.15847665847665848,0.01862464183381089
698,523,2.2945519049244467e-06,False,13.0,686.0,0.0,128.0,0.15724815724815724,0.01859799713876967
699,808,2.2899635041540023e-06,False,13.0,687.0,0.0,127.0,0.15601965601965603,0.018571428571428572
700,173,2.203950771217933e-06,False,13.0,688.0,0.0,126.0,0.1547911547911548,0.018544935805991442
701,449,2.1583769012067933e-06,False,13.0,689.0,0.0,125.0,0.15356265356265356,0.018518518518518517
702,20,2.106643705701572e-06,False,13.0,690.0,0.0,124.0,0.15233415233415235,0.01849217638691323
703,373,2.0774593849637313e-06,False,13.0,691.0,0.0,123.0,0.1511056511056511,0.018465909090909092
704,256,2.0754869183292612e-06,False,13.0,692.0,0.0,122.0,0.14987714987714987,0.018439716312056736
705,296,2.0128745745751075e-06,False,13.0,693.0,0.0,121.0,0.14864864864864866,0.018413597733711047
706,588,2.012283403018955e-06,False,13.0,694.0,0.0,120.0,0.14742014742014742,0.018387553041018388
707,636,2.0119225609960267e-06,False,13.0,695.0,0.0,119.0,0.14619164619164618,0.018361581920903956
708,180,2.0077384306205204e-06,False,13.0,696.0,0.0,118.0,0.14496314496314497,0.018335684062059238
709,337,1.9736389731406234e-06,False,13.0,697.0,0.0,117.0,0.14373464373464373,0.018309859154929577
710,593,1.9477658952382626e-06,False,13.0,698.0,0.0,116.0,0.14250614250614252,0.01828410689170183
711,277,1.934723286467488e-06,False,13.0,699.0,0.0,115.0,0.14127764127764128,0.018258426966292134
712,118,1.9063238596572774e-06,False,13.0,700.0,0.0,114.0,0.14004914004914004,0.0182328190743338
713,362,1.9012420580111211e-06,False,13.0,701.0,0.0,113.0,0.13882063882063883,0.018207282913165267
714,605,1.876230385278177e-06,False,13.0,702.0,0.0,112.0,0.1375921375921376,0.01818181818181818
715,471,1.8667976746655768e-06,False,13.0,703.0,0.0,111.0,0.13636363636363635,0.018156424581005588
716,762,1.8655233589015552e-06,False,13.0,704.0,0.0,110.0,0.13513513513513514,0.01813110181311018
717,696,1.7884343606056063e-06,False,13.0,705.0,0.0,109.0,0.1339066339066339,0.018105849582172703
718,55,1.788137637959153e-06,False,13.0,706.0,0.0,108.0,0.13267813267813267,0.01808066759388039
719,197,1.7730872059473768e-06,False,13.0,707.0,0.0,107.0,0.13144963144963145,0.018055555555555554
720,244,1.7726865735312458e-06,False,13.0,708.0,0.0,106.0,0.13022113022113022,0.018030513176144243
721,399,1.7677991763775935e-06,False,13.0,709.0,0.0,105.0,0.128992628992629,0.018005540166204988
722,653,1.7566350152264931e-06,False,13.0,710.0,0.0,104.0,0.12776412776412777,0.017980636237897647
723,669,1.7324878172075842e-06,False,13.0,711.0,0.0,103.0,0.12653562653562653,0.017955801104972375
724,349,1.725086804071907e-06,False,13.0,712.0,0.0,102.0,0.12530712530712532,0.01793103448275862
725,663,1.6858550679899054e-06,False,13.0,713.0,0.0,101.0,0.12407862407862408,0.01790633608815427
726,496,1.6573962966504041e-06,False,13.0,714.0,0.0,100.0,0.12285012285012285,0.017881705639614855
727,198,1.594408786331769e-06,False,13.0,715.0,0.0,99.0,0.12162162162162163,0.017857142857142856
728,811,1.5692630768171512e-06,False,13.0,716.0,0.0,98.0,0.12039312039312039,0.01783264746227709
729,468,1.5614571111655096e-06,False,13.0,717.0,0.0,97.0,0.11916461916461916,0.01780821917808219
730,335,1.5397270090033999e-06,False,13.0,718.0,0.0,96.0,0.11793611793611794,0.017783857729138167
731,413,1.5308294223359553e-06,False,13.0,719.0,0.0,95.0,0.1167076167076167,0.017759562841530054
732,748,1.4853021639282815e-06,False,13.0,720.0,0.0,94.0,0.11547911547911548,0.017735334242837655
733,734,1.4738672007297282e-06,False,13.0,721.0,0.0,93.0,0.11425061425061425,0.017711171662125342
734,83,1.468198092879902e-06,False,13.0,722.0,0.0,92.0,0.11302211302211303,0.017687074829931974
735,457,1.4603807585444883e-06,False,13.0,723.0,0.0,91.0,0.11179361179361179,0.017663043478260868
736,405,1.4438514881476294e-06,False,13.0,724.0,0.0,90.0,0.11056511056511056,0.017639077340569877
737,431,1.430439169780584e-06,False,13.0,725.0,0.0,89.0,0.10933660933660934,0.017615176151761516
738,651,1.421259185008239e-06,False,13.0,726.0,0.0,88.0,0.10810810810810811,0.017591339648173207
739,129,1.3886933629692066e-06,False,13.0,727.0,0.0,87.0,0.10687960687960688,0.01756756756756757
740,160,1.3821531865687575e-06,False,13.0,728.0,0.0,86.0,0.10565110565110565,0.017543859649122806
741,421,1.3673070498043671e-06,False,13.0,729.0,0.0,85.0,0.10442260442260443,0.01752021563342318
742,623,1.3367905467021046e-06,False,13.0,730.0,0.0,84.0,0.10319410319410319,0.017496635262449527
743,621,1.3168012173991883e-06,False,13.0,731.0,0.0,83.0,0.10196560196560196,0.01747311827956989
744,347,1.215274437527114e-06,False,13.0,732.0,0.0,82.0,0.10073710073710074,0.0174496644295302
745,526,1.200574388349196e-06,False,13.0,733.0,0.0,81.0,0.09950859950859951,0.01742627345844504
746,240,1.1958618415519595e-06,False,13.0,734.0,0.0,80.0,0.09828009828009827,0.01740294511378849
747,281,1.1810857358796056e-06,False,13.0,735.0,0.0,79.0,0.09705159705159705,0.017379679144385027
748,494,1.1362658369762357e-06,False,13.0,736.0,0.0,78.0,0.09582309582309582,0.017356475300400534
749,642,1.1209532431166735e-06,False,13.0,737.0,0.0,77.0,0.0945945945945946,0.017333333333333333
750,706,1.0569095820756047e-06,False,13.0,738.0,0.0,76.0,0.09336609336609336,0.017310252996005325
751,465,1.0496752338440274e-06,False,13.0,739.0,0.0,75.0,0.09213759213759214,0.017287234042553192
752,107,1.0269311587762786e-06,False,13.0,740.0,0.0,74.0,0.09090909090909091,0.017264276228419653
753,824,1.017581894302566e-06,False,13.0,741.0,0.0,73.0,0.08968058968058969,0.017241379310344827
754,105,9.965467597794486e-07,False,13.0,742.0,0.0,72.0,0.08845208845208845,0.017218543046357615
755,537,9.771339364306186e-07,False,13.0,743.0,0.0,71.0,0.08722358722358722,0.017195767195767195
756,637,9.758562100614654e-07,False,13.0,744.0,0.0,70.0,0.085995085995086,0.017173051519154558
757,765,9.697323548607528e-07,False,13.0,745.0,0.0,69.0,0.08476658476658476,0.017150395778364115
758,0,9.485394798502966e-07,False,13.0,746.0,0.0,68.0,0.08353808353808354,0.017127799736495388
759,483,9.421942763765401e-07,False,13.0,747.0,0.0,67.0,0.08230958230958231,0.017105263157894738
760,328,9.275780712414416e-07,False,13.0,748.0,0.0,66.0,0.08108108108108109,0.017082785808147174
761,812,9.011287716020888e-07,False,13.0,749.0,0.0,65.0,0.07985257985257985,0.01706036745406824
762,122,8.962795163824921e-07,False,13.0,750.0,0.0,64.0,0.07862407862407862,0.01703800786369594
763,134,8.901301953301299e-07,False,13.0,751.0,0.0,63.0,0.0773955773955774,0.017015706806282723
764,307,8.480973860969243e-07,False,13.0,752.0,0.0,62.0,0.07616707616707617,0.01699346405228758
765,29,8.44502551444748e-07,False,13.0,753.0,0.0,61.0,0.07493857493857493,0.016971279373368148
766,542,8.296118494399707e-07,False,13.0,754.0,0.0,60.0,0.07371007371007371,0.01694915254237288
767,737,8.141035436892707e-07,False,13.0,755.0,0.0,59.0,0.07248157248157248,0.016927083333333332
768,674,8.099148658402555e-07,False,13.0,756.0,0.0,58.0,0.07125307125307126,0.016905071521456438
769,34,7.77169816501555e-07,False,13.0,757.0,0.0,57.0,0.07002457002457002,0.016883116883116882
770,799,7.577316409879131e-07,False,13.0,758.0,0.0,56.0,0.0687960687960688,0.016861219195849545
771,326,7.487167295039399e-07,False,13.0,759.0,0.0,55.0,0.06756756756756757,0.01683937823834197
772,306,6.814321977799409e-07,False,13.0,760.0,0.0,54.0,0.06633906633906633,0.016817593790426907
773,649,6.528729841193126e-07,False,13.0,761.0,0.0,53.0,0.06511056511056511,0.016795865633074936
774,280,6.345465521917504e-07,False,13.0,762.0,0.0,52.0,0.06388206388206388,0.016774193548387096
775,218,6.328332347038668e-07,False,13.0,763.0,0.0,51.0,0.06265356265356266,0.01675257731958763
776,751,6.30567456028075e-07,False,13.0,764.0,0.0,50.0,0.06142506142506143,0.01673101673101673
777,791,6.149696218926692e-07,False,13.0,765.0,0.0,49.0,0.060196560196560195,0.016709511568123392
778,610,6.057201176190574e-07,False,13.0,766.0,0.0,48.0,0.05896805896805897,0.01668806161745828
779,396,5.995185574647621e-07,False,13.0,767.0,0.0,47.0,0.05773955773955774,0.016666666666666666
780,777,5.482181109073281e-07,False,13.0,768.0,0.0,46.0,0.056511056511056514,0.016645326504481434
781,171,5.252264259070216e-07,False,13.0,769.0,0.0,45.0,0.05528255528255528,0.016624040920716114
782,267,5.199987072046497e-07,False,13.0,770.0,0.0,44.0,0.05405405405405406,0.016602809706257982
783,154,4.673385376463557e-07,False,13.0,771.0,0.0,43.0,0.052825552825552825,0.016581632653061226
784,615,4.6636705519631505e-07,False,13.0,772.0,0.0,42.0,0.051597051597051594,0.016560509554140127
785,51,4.630260264093522e-07,False,13.0,773.0,0.0,41.0,0.05036855036855037,0.01653944020356234
786,570,4.2388714405205974e-07,False,13.0,774.0,0.0,40.0,0.04914004914004914,0.016518424396442185
787,164,3.824559371423675e-07,False,13.0,775.0,0.0,39.0,0.04791154791154791,0.01649746192893401
788,561,3.6187969953971333e-07,False,13.0,776.0,0.0,38.0,0.04668304668304668,0.016476552598225603
789,233,3.2595724519524083e-07,False,13.0,777.0,0.0,37.0,0.045454545454545456,0.016455696202531647
790,692,3.1650006349082105e-07,False,13.0,778.0,0.0,36.0,0.044226044226044224,0.01643489254108723
791,552,2.954855062853312e-07,False,13.0,779.0,0.0,35.0,0.042997542997543,0.016414141414141416
792,727,2.8163739784758945e-07,False,13.0,780.0,0.0,34.0,0.04176904176904177,0.01639344262295082
793,788,2.7644063038678723e-07,False,13.0,781.0,0.0,33.0,0.04054054054054054,0.0163727959697733
794,752,2.593721717403241e-07,False,13.0,782.0,0.0,32.0,0.03931203931203931,0.016352201257861635
795,172,2.3167457641193323e-07,False,13.0,783.0,0.0,31.0,0.038083538083538086,0.016331658291457288
796,731,2.2649329878277058e-07,False,13.0,784.0,0.0,30.0,0.036855036855036855,0.01631116687578419
797,387,2.1621212908939924e-07,False,13.0,785.0,0.0,29.0,0.03562653562653563,0.016290726817042606
798,472,2.0956058222054708e-07,False,13.0,786.0,0.0,28.0,0.0343980343980344,0.016270337922403004
799,182,2.0613620677067956e-07,False,13.0,787.0,0.0,27.0,0.033169533169533166,0.01625
800,192,1.9469476342237613e-07,False,13.0,788.0,0.0,26.0,0.03194103194103194,0.016229712858926344
801,316,1.9141801033129013e-07,False,13.0,789.0,0.0,25.0,0.030712530712530713,0.016209476309226933
802,711,1.8988961869581544e-07,False,13.0,790.0,0.0,24.0,0.029484029484029485,0.0161892901618929
803,497,1.7667296958734369e-07,False,13.0,791.0,0.0,23.0,0.028255528255528257,0.01616915422885572
804,436,1.6942740899139608e-07,False,13.0,792.0,0.0,22.0,0.02702702702702703,0.016149068322981366
805,144,1.447580189051223e-07,False,13.0,793.0,0.0,21.0,0.025798525798525797,0.016129032258064516
806,428,1.417102026834982e-07,False,13.0,794.0,0.0,20.0,0.02457002457002457,0.0161090458488228
807,479,1.2594246356911754e-07,False,13.0,795.0,0.0,19.0,0.02334152334152334,0.01608910891089109
808,70,1.245963261453653e-07,False,13.0,796.0,0.0,18.0,0.022113022113022112,0.016069221260815822
809,117,1.2310528063608217e-07,False,13.0,797.0,0.0,17.0,0.020884520884520884,0.016049382716049384
810,562,1.0441684139550489e-07,False,13.0,798.0,0.0,16.0,0.019656019656019656,0.016029593094944512
811,383,9.670507949977036e-08,False,13.0,799.0,0.0,15.0,0.018427518427518427,0.01600985221674877
812,245,8.234081860791775e-08,False,13.0,800.0,0.0,14.0,0.0171990171990172,0.015990159901599015
813,139,8.011873831037519e-08,False,13.0,801.0,0.0,13.0,0.01597051597051597,0.01597051597051597
814,825,6.802793706128796e-08,False,13.0,802.0,0.0,12.0,0.014742014742014743,0.015950920245398775
815,412,6.760444648534758e-08,False,13.0,803.0,0.0,11.0,0.013513513513513514,0.015931372549019607
816,745,5.6205884391147265e-08,False,13.0,804.0,0.0,10.0,0.012285012285012284,0.01591187270501836
817,49,4.843328227366328e-08,False,13.0,805.0,0.0,9.0,0.011056511056511056,0.01589242053789731
818,257,4.520302709920543e-08,False,13.0,806.0,0.0,8.0,0.009828009828009828,0.015873015873015872
819,427,4.175719681143164e-08,False,13.0,807.0,0.0,7.0,0.0085995085995086,0.015853658536585366
820,418,3.5112819318783295e-08,False,13.0,808.0,0.0,6.0,0.007371007371007371,0.015834348355663823
821,596,2.9309445537251122e-08,False,13.0,809.0,0.0,5.0,0.006142506142506142,0.015815085158150853
822,48,2.72764530961922e-08,False,13.0,810.0,0.0,4.0,0.004914004914004914,0.015795868772782502
823,210,2.676444310623083e-08,False,13.0,811.0,0.0,3.0,0.0036855036855036856,0.015776699029126214
824,226,1.6791783963299167e-08,False,13.0,812.0,0.0,2.0,0.002457002457002457,0.01575757575757576
825,694,8.446289889718628e-09,False,13.0,813.0,0.0,1.0,0.0012285012285012285,0.015738498789346248
826,3,5.6821551908115e-09,False,13.0,814.0,0.0,0.0,0.0,0.015719467956469165
