,personId,probability,gold,TP,FP,TN,FN,TN_recall,Precise
0,330,0.8597520589828491,True,1.0,0.0,33.0,793.0,1.0,1.0
1,683,0.8535945415496826,True,2.0,0.0,32.0,793.0,1.0,1.0
2,725,0.8529325723648071,True,3.0,0.0,31.0,793.0,1.0,1.0
3,672,0.8448008298873901,True,4.0,0.0,30.0,793.0,1.0,1.0
4,365,0.8429980278015137,True,5.0,0.0,29.0,793.0,1.0,1.0
5,289,0.8313448429107666,True,6.0,0.0,28.0,793.0,1.0,1.0
6,489,0.8205761313438416,True,7.0,0.0,27.0,793.0,1.0,1.0
7,415,0.8200801014900208,True,8.0,0.0,26.0,793.0,1.0,1.0
8,500,0.814937174320221,True,9.0,0.0,25.0,793.0,1.0,1.0
9,626,0.8099815845489502,True,10.0,0.0,24.0,793.0,1.0,1.0
10,67,0.7984133362770081,True,11.0,0.0,23.0,793.0,1.0,1.0
11,106,0.7941557168960571,True,12.0,0.0,22.0,793.0,1.0,1.0
12,469,0.7805185317993164,True,13.0,0.0,21.0,793.0,1.0,1.0
13,379,0.7481597661972046,True,14.0,0.0,20.0,793.0,1.0,1.0
14,666,0.745820939540863,True,15.0,0.0,19.0,793.0,1.0,1.0
15,255,0.7357766628265381,True,16.0,0.0,18.0,793.0,1.0,1.0
16,618,0.7298474311828613,True,17.0,0.0,17.0,793.0,1.0,1.0
17,759,0.724830150604248,True,18.0,0.0,16.0,793.0,1.0,1.0
18,356,0.7033911943435669,False,18.0,1.0,16.0,792.0,0.9987389659520807,0.9473684210526315
19,607,0.7025202512741089,True,19.0,1.0,15.0,792.0,0.9987389659520807,0.95
20,342,0.6999704837799072,True,20.0,1.0,14.0,792.0,0.9987389659520807,0.9523809523809523
21,662,0.6850384473800659,True,21.0,1.0,13.0,792.0,0.9987389659520807,0.9545454545454546
22,298,0.6665382385253906,True,22.0,1.0,12.0,792.0,0.9987389659520807,0.9565217391304348
23,712,0.6609255075454712,True,23.0,1.0,11.0,792.0,0.9987389659520807,0.9583333333333334
24,541,0.6394591927528381,True,24.0,1.0,10.0,792.0,0.9987389659520807,0.96
25,744,0.6265909671783447,True,25.0,1.0,9.0,792.0,0.9987389659520807,0.9615384615384616
26,435,0.5593777894973755,True,26.0,1.0,8.0,792.0,0.9987389659520807,0.9629629629629629
27,790,0.54164057970047,True,27.0,1.0,7.0,792.0,0.9987389659520807,0.9642857142857143
28,514,0.5364953279495239,True,28.0,1.0,6.0,792.0,0.9987389659520807,0.9655172413793104
29,502,0.5255321860313416,False,28.0,2.0,6.0,791.0,0.9974779319041615,0.9333333333333333
30,555,0.5078144669532776,True,29.0,2.0,5.0,791.0,0.9974779319041615,0.9354838709677419
31,241,0.43092653155326843,True,30.0,2.0,4.0,791.0,0.9974779319041615,0.9375
32,753,0.42062777280807495,True,31.0,2.0,3.0,791.0,0.9974779319041615,0.9393939393939394
33,148,0.40076732635498047,False,31.0,3.0,3.0,790.0,0.9962168978562421,0.9117647058823529
34,667,0.18537849187850952,True,32.0,3.0,2.0,790.0,0.9962168978562421,0.9142857142857143
35,367,0.11378264427185059,True,33.0,3.0,1.0,790.0,0.9962168978562421,0.9166666666666666
36,313,0.09543779492378235,True,34.0,3.0,0.0,790.0,0.9962168978562421,0.918918918918919
37,341,0.09083539247512817,False,34.0,4.0,0.0,789.0,0.9949558638083228,0.8947368421052632
38,110,0.08759123086929321,False,34.0,5.0,0.0,788.0,0.9936948297604036,0.8717948717948718
39,764,0.08187028765678406,False,34.0,6.0,0.0,787.0,0.9924337957124842,0.85
40,814,0.04583212733268738,False,34.0,7.0,0.0,786.0,0.9911727616645649,0.8292682926829268
41,112,0.041926413774490356,False,34.0,8.0,0.0,785.0,0.9899117276166457,0.8095238095238095
42,453,0.019610196352005005,False,34.0,9.0,0.0,784.0,0.9886506935687264,0.7906976744186046
43,68,0.018381446599960327,False,34.0,10.0,0.0,783.0,0.987389659520807,0.7727272727272727
44,728,0.015545010566711426,False,34.0,11.0,0.0,782.0,0.9861286254728878,0.7555555555555555
45,478,0.010690540075302124,False,34.0,12.0,0.0,781.0,0.9848675914249685,0.7391304347826086
46,18,0.010108381509780884,False,34.0,13.0,0.0,780.0,0.9836065573770492,0.723404255319149
47,629,0.00881311297416687,False,34.0,14.0,0.0,779.0,0.9823455233291298,0.7083333333333334
48,611,0.008430302143096924,False,34.0,15.0,0.0,778.0,0.9810844892812106,0.6938775510204082
49,75,0.007271260023117065,False,34.0,16.0,0.0,777.0,0.9798234552332913,0.68
50,320,0.007175475358963013,False,34.0,17.0,0.0,776.0,0.978562421185372,0.6666666666666666
51,525,0.007103443145751953,False,34.0,18.0,0.0,775.0,0.9773013871374527,0.6538461538461539
52,721,0.006251633167266846,False,34.0,19.0,0.0,774.0,0.9760403530895334,0.6415094339622641
53,645,0.00597807765007019,False,34.0,20.0,0.0,773.0,0.9747793190416141,0.6296296296296297
54,572,0.005435973405838013,False,34.0,21.0,0.0,772.0,0.9735182849936949,0.6181818181818182
55,205,0.005319744348526001,False,34.0,22.0,0.0,771.0,0.9722572509457755,0.6071428571428571
56,769,0.004966944456100464,False,34.0,23.0,0.0,770.0,0.9709962168978562,0.5964912280701754
57,578,0.004913449287414551,False,34.0,24.0,0.0,769.0,0.969735182849937,0.5862068965517241
58,58,0.004805237054824829,False,34.0,25.0,0.0,768.0,0.9684741488020177,0.576271186440678
59,203,0.0046003758907318115,False,34.0,26.0,0.0,767.0,0.9672131147540983,0.5666666666666667
60,564,0.004078894853591919,False,34.0,27.0,0.0,766.0,0.9659520807061791,0.5573770491803278
61,495,0.0037443041801452637,False,34.0,28.0,0.0,765.0,0.9646910466582598,0.5483870967741935
62,747,0.0034624338150024414,False,34.0,29.0,0.0,764.0,0.9634300126103404,0.5396825396825397
63,188,0.003182053565979004,False,34.0,30.0,0.0,763.0,0.9621689785624212,0.53125
64,414,0.0026862621307373047,False,34.0,31.0,0.0,762.0,0.9609079445145019,0.5230769230769231
65,22,0.0025101900100708008,False,34.0,32.0,0.0,761.0,0.9596469104665826,0.5151515151515151
66,253,0.002501457929611206,False,34.0,33.0,0.0,760.0,0.9583858764186634,0.5074626865671642
67,682,0.0024725794792175293,False,34.0,34.0,0.0,759.0,0.957124842370744,0.5
68,826,0.0024566650390625,False,34.0,35.0,0.0,758.0,0.9558638083228247,0.4927536231884058
69,463,0.002412348985671997,False,34.0,36.0,0.0,757.0,0.9546027742749055,0.4857142857142857
70,579,0.0022301971912384033,False,34.0,37.0,0.0,756.0,0.9533417402269861,0.4788732394366197
71,368,0.0022111833095550537,False,34.0,38.0,0.0,755.0,0.9520807061790668,0.4722222222222222
72,452,0.0021956264972686768,False,34.0,39.0,0.0,754.0,0.9508196721311475,0.4657534246575342
73,650,0.002168804407119751,False,34.0,40.0,0.0,753.0,0.9495586380832283,0.4594594594594595
74,1,0.002006709575653076,False,34.0,41.0,0.0,752.0,0.9482976040353089,0.4533333333333333
75,422,0.0019244253635406494,False,34.0,42.0,0.0,751.0,0.9470365699873896,0.4473684210526316
76,141,0.0019105970859527588,False,34.0,43.0,0.0,750.0,0.9457755359394704,0.44155844155844154
77,548,0.001839369535446167,False,34.0,44.0,0.0,749.0,0.9445145018915511,0.4358974358974359
78,446,0.0017528831958770752,False,34.0,45.0,0.0,748.0,0.9432534678436317,0.43037974683544306
79,190,0.0016467273235321045,False,34.0,46.0,0.0,747.0,0.9419924337957125,0.425
80,466,0.001623779535293579,False,34.0,47.0,0.0,746.0,0.9407313997477932,0.41975308641975306
81,208,0.001578211784362793,False,34.0,48.0,0.0,745.0,0.9394703656998739,0.4146341463414634
82,668,0.0015775561332702637,False,34.0,49.0,0.0,744.0,0.9382093316519546,0.40963855421686746
83,377,0.001544356346130371,False,34.0,50.0,0.0,743.0,0.9369482976040353,0.40476190476190477
84,15,0.0014950335025787354,False,34.0,51.0,0.0,742.0,0.935687263556116,0.4
85,98,0.0014081895351409912,False,34.0,52.0,0.0,741.0,0.9344262295081968,0.3953488372093023
86,343,0.0012371242046356201,False,34.0,53.0,0.0,740.0,0.9331651954602774,0.39080459770114945
87,40,0.0011946558952331543,False,34.0,54.0,0.0,739.0,0.9319041614123581,0.38636363636363635
88,41,0.001088857650756836,False,34.0,55.0,0.0,738.0,0.9306431273644389,0.38202247191011235
89,91,0.0010809004306793213,False,34.0,56.0,0.0,737.0,0.9293820933165196,0.37777777777777777
90,534,0.0010540187358856201,False,34.0,57.0,0.0,736.0,0.9281210592686002,0.37362637362637363
91,354,0.0009852349758148193,False,34.0,58.0,0.0,735.0,0.926860025220681,0.3695652173913043
92,438,0.0009674131870269775,False,34.0,59.0,0.0,734.0,0.9255989911727617,0.3655913978494624
93,384,0.0009405314922332764,False,34.0,60.0,0.0,733.0,0.9243379571248423,0.3617021276595745
94,689,0.0009122490882873535,False,34.0,61.0,0.0,732.0,0.9230769230769231,0.35789473684210527
95,95,0.0009008944034576416,False,34.0,62.0,0.0,731.0,0.9218158890290038,0.3541666666666667
96,196,0.0008181333541870117,False,34.0,63.0,0.0,730.0,0.9205548549810845,0.35051546391752575
97,251,0.0007910728454589844,False,34.0,64.0,0.0,729.0,0.9192938209331651,0.3469387755102041
98,57,0.0007800757884979248,False,34.0,65.0,0.0,728.0,0.9180327868852459,0.3434343434343434
99,678,0.0007718503475189209,False,34.0,66.0,0.0,727.0,0.9167717528373266,0.34
100,608,0.0007515251636505127,False,34.0,67.0,0.0,726.0,0.9155107187894073,0.33663366336633666
101,698,0.0006620883941650391,False,34.0,68.0,0.0,725.0,0.914249684741488,0.3333333333333333
102,104,0.0006410479545593262,False,34.0,69.0,0.0,724.0,0.9129886506935687,0.3300970873786408
103,151,0.0006319582462310791,False,34.0,70.0,0.0,723.0,0.9117276166456494,0.3269230769230769
104,323,0.0006180107593536377,False,34.0,71.0,0.0,722.0,0.9104665825977302,0.3238095238095238
105,507,0.0006143152713775635,False,34.0,72.0,0.0,721.0,0.9092055485498108,0.32075471698113206
106,138,0.0005601048469543457,False,34.0,73.0,0.0,720.0,0.9079445145018915,0.3177570093457944
107,382,0.0005480051040649414,False,34.0,74.0,0.0,719.0,0.9066834804539723,0.3148148148148148
108,293,0.0005377531051635742,False,34.0,75.0,0.0,718.0,0.905422446406053,0.3119266055045872
109,279,0.0005367100238800049,False,34.0,76.0,0.0,717.0,0.9041614123581336,0.3090909090909091
110,515,0.0005262792110443115,False,34.0,77.0,0.0,716.0,0.9029003783102144,0.3063063063063063
111,485,0.0005168020725250244,False,34.0,78.0,0.0,715.0,0.9016393442622951,0.30357142857142855
112,217,0.0005050003528594971,False,34.0,79.0,0.0,714.0,0.9003783102143758,0.3008849557522124
113,353,0.0005044043064117432,False,34.0,80.0,0.0,713.0,0.8991172761664565,0.2982456140350877
114,73,0.00048664212226867676,False,34.0,81.0,0.0,712.0,0.8978562421185372,0.2956521739130435
115,501,0.0004794895648956299,False,34.0,82.0,0.0,711.0,0.8965952080706179,0.29310344827586204
116,710,0.00047907233238220215,False,34.0,83.0,0.0,710.0,0.8953341740226987,0.2905982905982906
117,598,0.00047853589057922363,False,34.0,84.0,0.0,709.0,0.8940731399747793,0.288135593220339
118,785,0.0004693567752838135,False,34.0,85.0,0.0,708.0,0.89281210592686,0.2857142857142857
119,61,0.000462263822555542,False,34.0,86.0,0.0,707.0,0.8915510718789408,0.2833333333333333
120,369,0.00043699145317077637,False,34.0,87.0,0.0,706.0,0.8902900378310215,0.2809917355371901
121,159,0.0004297196865081787,False,34.0,88.0,0.0,705.0,0.8890290037831021,0.2786885245901639
122,77,0.00042700767517089844,False,34.0,89.0,0.0,704.0,0.8877679697351829,0.2764227642276423
123,761,0.0004229247570037842,False,34.0,90.0,0.0,703.0,0.8865069356872636,0.27419354838709675
124,493,0.00040838122367858887,False,34.0,91.0,0.0,702.0,0.8852459016393442,0.272
125,35,0.0003910958766937256,False,34.0,92.0,0.0,701.0,0.8839848675914249,0.2698412698412698
126,763,0.0003814101219177246,False,34.0,93.0,0.0,700.0,0.8827238335435057,0.2677165354330709
127,344,0.0003775656223297119,False,34.0,94.0,0.0,699.0,0.8814627994955864,0.265625
128,695,0.0003732740879058838,False,34.0,95.0,0.0,698.0,0.880201765447667,0.26356589147286824
129,220,0.00033533573150634766,False,34.0,96.0,0.0,697.0,0.8789407313997478,0.26153846153846155
130,227,0.00032660365104675293,False,34.0,97.0,0.0,696.0,0.8776796973518285,0.2595419847328244
131,441,0.0002859830856323242,False,34.0,98.0,0.0,695.0,0.8764186633039092,0.25757575757575757
132,488,0.0002621114253997803,False,34.0,99.0,0.0,694.0,0.8751576292559899,0.2556390977443609
133,120,0.00026038289070129395,False,34.0,100.0,0.0,693.0,0.8738965952080706,0.2537313432835821
134,269,0.00025153160095214844,False,34.0,101.0,0.0,692.0,0.8726355611601513,0.2518518518518518
135,385,0.0002511441707611084,False,34.0,102.0,0.0,691.0,0.8713745271122321,0.25
136,274,0.00024840235710144043,False,34.0,103.0,0.0,690.0,0.8701134930643127,0.24817518248175183
137,336,0.0002441704273223877,False,34.0,104.0,0.0,689.0,0.8688524590163934,0.2463768115942029
138,810,0.0002294778823852539,False,34.0,105.0,0.0,688.0,0.8675914249684742,0.2446043165467626
139,302,0.00022915005683898926,False,34.0,106.0,0.0,687.0,0.8663303909205549,0.24285714285714285
140,36,0.00021007657051086426,False,34.0,107.0,0.0,686.0,0.8650693568726355,0.24113475177304963
141,641,0.000209808349609375,False,34.0,108.0,0.0,685.0,0.8638083228247163,0.23943661971830985
142,563,0.00020611286163330078,False,34.0,109.0,0.0,684.0,0.862547288776797,0.23776223776223776
143,321,0.00018513202667236328,False,34.0,110.0,0.0,683.0,0.8612862547288777,0.2361111111111111
144,691,0.0001818537712097168,False,34.0,111.0,0.0,682.0,0.8600252206809584,0.23448275862068965
145,410,0.00017586350440979004,False,34.0,112.0,0.0,681.0,0.8587641866330391,0.2328767123287671
146,498,0.00017321109771728516,False,34.0,113.0,0.0,680.0,0.8575031525851198,0.23129251700680273
147,99,0.0001729428768157959,False,34.0,114.0,0.0,679.0,0.8562421185372006,0.22972972972972974
148,85,0.0001722276210784912,False,34.0,115.0,0.0,678.0,0.8549810844892812,0.22818791946308725
149,528,0.00017216801643371582,False,34.0,116.0,0.0,677.0,0.8537200504413619,0.22666666666666666
150,303,0.0001628100872039795,False,34.0,117.0,0.0,676.0,0.8524590163934426,0.2251655629139073
151,581,0.00015926361083984375,False,34.0,118.0,0.0,675.0,0.8511979823455234,0.2236842105263158
152,714,0.00015556812286376953,False,34.0,119.0,0.0,674.0,0.849936948297604,0.2222222222222222
153,657,0.0001531839370727539,False,34.0,120.0,0.0,673.0,0.8486759142496847,0.22077922077922077
154,345,0.00015211105346679688,False,34.0,121.0,0.0,672.0,0.8474148802017655,0.21935483870967742
155,28,0.0001499652862548828,False,34.0,122.0,0.0,671.0,0.8461538461538461,0.21794871794871795
156,512,0.00014898180961608887,False,34.0,123.0,0.0,670.0,0.8448928121059268,0.21656050955414013
157,740,0.00014862418174743652,False,34.0,124.0,0.0,669.0,0.8436317780580076,0.21518987341772153
158,16,0.00014337897300720215,False,34.0,125.0,0.0,668.0,0.8423707440100883,0.2138364779874214
159,447,0.0001386404037475586,False,34.0,126.0,0.0,667.0,0.8411097099621689,0.2125
160,185,0.00013634562492370605,False,34.0,127.0,0.0,666.0,0.8398486759142497,0.2111801242236025
161,420,0.00013193488121032715,False,34.0,128.0,0.0,665.0,0.8385876418663304,0.20987654320987653
162,815,0.0001309216022491455,False,34.0,129.0,0.0,664.0,0.8373266078184111,0.2085889570552147
163,701,0.00012767314910888672,False,34.0,130.0,0.0,663.0,0.8360655737704918,0.2073170731707317
164,116,0.0001204093496198766,False,34.0,131.0,0.0,662.0,0.8348045397225725,0.20606060606060606
165,594,0.00011572555376915261,False,34.0,132.0,0.0,661.0,0.8335435056746532,0.20481927710843373
166,577,0.00011443993571447209,False,34.0,133.0,0.0,660.0,0.832282471626734,0.20359281437125748
167,10,0.00011264690692769364,False,34.0,134.0,0.0,659.0,0.8310214375788146,0.20238095238095238
168,505,0.00011245177302043885,False,34.0,135.0,0.0,658.0,0.8297604035308953,0.20118343195266272
169,89,0.00011095168156316504,False,34.0,136.0,0.0,657.0,0.8284993694829761,0.2
170,143,0.00010924883099505678,False,34.0,137.0,0.0,656.0,0.8272383354350568,0.19883040935672514
171,804,0.00010908766853390262,False,34.0,138.0,0.0,655.0,0.8259773013871374,0.19767441860465115
172,574,0.00010592486069072038,False,34.0,139.0,0.0,654.0,0.8247162673392182,0.19653179190751446
173,600,0.00010588092845864594,False,34.0,140.0,0.0,653.0,0.8234552332912989,0.19540229885057472
174,46,9.742364636622369e-05,False,34.0,141.0,0.0,652.0,0.8221941992433796,0.19428571428571428
175,236,9.408339974470437e-05,False,34.0,142.0,0.0,651.0,0.8209331651954602,0.19318181818181818
176,332,8.936251833802089e-05,False,34.0,143.0,0.0,650.0,0.819672131147541,0.192090395480226
177,408,8.425349369645119e-05,False,34.0,144.0,0.0,649.0,0.8184110970996217,0.19101123595505617
178,681,8.276884182123467e-05,False,34.0,145.0,0.0,648.0,0.8171500630517023,0.18994413407821228
179,212,7.850091787986457e-05,False,34.0,146.0,0.0,647.0,0.8158890290037831,0.18888888888888888
180,720,7.607844599988312e-05,False,34.0,147.0,0.0,646.0,0.8146279949558638,0.1878453038674033
181,693,7.464182272087783e-05,False,34.0,148.0,0.0,645.0,0.8133669609079445,0.18681318681318682
182,219,7.394634303636849e-05,False,34.0,149.0,0.0,644.0,0.8121059268600253,0.18579234972677597
183,617,7.341344462474808e-05,False,34.0,150.0,0.0,643.0,0.8108448928121059,0.18478260869565216
184,31,7.215076038846746e-05,False,34.0,151.0,0.0,642.0,0.8095838587641866,0.1837837837837838
185,349,7.206280861282721e-05,False,34.0,152.0,0.0,641.0,0.8083228247162674,0.1827956989247312
186,613,6.880696309963241e-05,False,34.0,153.0,0.0,640.0,0.807061790668348,0.18181818181818182
187,86,6.73776667099446e-05,False,34.0,154.0,0.0,639.0,0.8058007566204287,0.18085106382978725
188,411,6.710250454489142e-05,False,34.0,155.0,0.0,638.0,0.8045397225725095,0.17989417989417988
189,23,6.703413237119094e-05,False,34.0,156.0,0.0,637.0,0.8032786885245902,0.17894736842105263
190,557,6.521499017253518e-05,False,34.0,157.0,0.0,636.0,0.8020176544766708,0.17801047120418848
191,59,6.448072963394225e-05,False,34.0,158.0,0.0,635.0,0.8007566204287516,0.17708333333333334
192,535,6.429810309782624e-05,False,34.0,159.0,0.0,634.0,0.7994955863808323,0.17616580310880828
193,632,6.420350109692663e-05,False,34.0,160.0,0.0,633.0,0.798234552332913,0.17525773195876287
194,724,6.366978777805343e-05,False,34.0,161.0,0.0,632.0,0.7969735182849937,0.17435897435897435
195,704,6.219903298188001e-05,False,34.0,162.0,0.0,631.0,0.7957124842370744,0.17346938775510204
196,553,5.9589045122265816e-05,False,34.0,163.0,0.0,630.0,0.7944514501891551,0.17258883248730963
197,380,5.933063948759809e-05,False,34.0,164.0,0.0,629.0,0.7931904161412359,0.1717171717171717
198,782,5.774940655101091e-05,False,34.0,165.0,0.0,628.0,0.7919293820933165,0.1708542713567839
199,339,5.741541463066824e-05,False,34.0,166.0,0.0,627.0,0.7906683480453972,0.17
200,768,5.573023736360483e-05,False,34.0,167.0,0.0,626.0,0.7894073139974779,0.1691542288557214
201,425,5.569968561758287e-05,False,34.0,168.0,0.0,625.0,0.7881462799495587,0.16831683168316833
202,283,5.5424570746254176e-05,False,34.0,169.0,0.0,624.0,0.7868852459016393,0.16748768472906403
203,772,5.198598955757916e-05,False,34.0,170.0,0.0,623.0,0.78562421185372,0.16666666666666666
204,32,5.165960828890093e-05,False,34.0,171.0,0.0,622.0,0.7843631778058008,0.16585365853658537
205,482,5.1636656280606985e-05,False,34.0,172.0,0.0,621.0,0.7831021437578815,0.1650485436893204
206,643,5.124028757563792e-05,False,34.0,173.0,0.0,620.0,0.7818411097099621,0.1642512077294686
207,423,5.1224847993580624e-05,False,34.0,174.0,0.0,619.0,0.7805800756620429,0.16346153846153846
208,366,5.095210508443415e-05,False,34.0,175.0,0.0,618.0,0.7793190416141236,0.16267942583732056
209,304,5.062120544607751e-05,False,34.0,176.0,0.0,617.0,0.7780580075662042,0.1619047619047619
210,364,4.6569020923925564e-05,False,34.0,177.0,0.0,616.0,0.776796973518285,0.16113744075829384
211,784,4.6480279706884176e-05,False,34.0,178.0,0.0,615.0,0.7755359394703657,0.16037735849056603
212,209,4.574470585794188e-05,False,34.0,179.0,0.0,614.0,0.7742749054224464,0.1596244131455399
213,705,4.5394823246169835e-05,False,34.0,180.0,0.0,613.0,0.7730138713745272,0.1588785046728972
214,794,4.534281470114365e-05,False,34.0,181.0,0.0,612.0,0.7717528373266078,0.15813953488372093
215,170,4.527941928245127e-05,False,34.0,182.0,0.0,611.0,0.7704918032786885,0.1574074074074074
216,348,4.44828110630624e-05,False,34.0,183.0,0.0,610.0,0.7692307692307693,0.15668202764976957
217,8,4.3920863390667364e-05,False,34.0,184.0,0.0,609.0,0.7679697351828499,0.1559633027522936
218,601,4.148219886701554e-05,False,34.0,185.0,0.0,608.0,0.7667087011349306,0.1552511415525114
219,686,4.125727355130948e-05,False,34.0,186.0,0.0,607.0,0.7654476670870114,0.15454545454545454
220,758,4.1006187530001625e-05,False,34.0,187.0,0.0,606.0,0.7641866330390921,0.15384615384615385
221,290,4.040206840727478e-05,False,34.0,188.0,0.0,605.0,0.7629255989911727,0.15315315315315314
222,779,3.9862425182946026e-05,False,34.0,189.0,0.0,604.0,0.7616645649432535,0.15246636771300448
223,702,3.861775257973932e-05,False,34.0,190.0,0.0,603.0,0.7604035308953342,0.15178571428571427
224,266,3.562577330740169e-05,False,34.0,191.0,0.0,602.0,0.7591424968474149,0.1511111111111111
225,358,3.544893115758896e-05,False,34.0,192.0,0.0,601.0,0.7578814627994955,0.1504424778761062
226,140,3.510835085762665e-05,False,34.0,193.0,0.0,600.0,0.7566204287515763,0.14977973568281938
227,549,3.494324118946679e-05,False,34.0,194.0,0.0,599.0,0.755359394703657,0.14912280701754385
228,522,3.430439028306864e-05,False,34.0,195.0,0.0,598.0,0.7540983606557377,0.14847161572052403
229,516,3.1911476980894804e-05,False,34.0,196.0,0.0,597.0,0.7528373266078184,0.14782608695652175
230,355,3.0261424399213865e-05,False,34.0,197.0,0.0,596.0,0.7515762925598991,0.1471861471861472
231,749,2.9534467103076167e-05,False,34.0,198.0,0.0,595.0,0.7503152585119798,0.14655172413793102
232,2,2.9403754524537362e-05,False,34.0,199.0,0.0,594.0,0.7490542244640606,0.1459227467811159
233,38,2.890615360229276e-05,False,34.0,200.0,0.0,593.0,0.7477931904161412,0.1452991452991453
234,733,2.7758931537391618e-05,False,34.0,201.0,0.0,592.0,0.7465321563682219,0.14468085106382977
235,249,2.673310700629372e-05,False,34.0,202.0,0.0,591.0,0.7452711223203027,0.1440677966101695
236,506,2.6567955501377583e-05,False,34.0,203.0,0.0,590.0,0.7440100882723834,0.14345991561181434
237,248,2.527530159568414e-05,False,34.0,204.0,0.0,589.0,0.742749054224464,0.14285714285714285
238,273,2.4798775484669022e-05,False,34.0,205.0,0.0,588.0,0.7414880201765448,0.14225941422594143
239,670,2.477119051036425e-05,False,34.0,206.0,0.0,587.0,0.7402269861286255,0.14166666666666666
240,707,2.4390359612880275e-05,False,34.0,207.0,0.0,586.0,0.7389659520807061,0.14107883817427386
241,27,2.4125867639668286e-05,False,34.0,208.0,0.0,585.0,0.7377049180327869,0.14049586776859505
242,568,2.3501030227635056e-05,False,34.0,209.0,0.0,584.0,0.7364438839848676,0.13991769547325103
243,419,2.3485234123654664e-05,False,34.0,210.0,0.0,583.0,0.7351828499369483,0.13934426229508196
244,797,2.3271357349585742e-05,False,34.0,211.0,0.0,582.0,0.733921815889029,0.13877551020408163
245,259,2.314188714080956e-05,False,34.0,212.0,0.0,581.0,0.7326607818411097,0.13821138211382114
246,285,2.3052722099237144e-05,False,34.0,213.0,0.0,580.0,0.7313997477931904,0.13765182186234817
247,656,2.2873977286508307e-05,False,34.0,214.0,0.0,579.0,0.7301387137452712,0.13709677419354838
248,580,2.262402995256707e-05,False,34.0,215.0,0.0,578.0,0.7288776796973518,0.13654618473895583
249,532,2.1808526071254164e-05,False,34.0,216.0,0.0,577.0,0.7276166456494325,0.136
250,658,2.176553607569076e-05,False,34.0,217.0,0.0,576.0,0.7263556116015133,0.13545816733067728
251,644,2.10893831535941e-05,False,34.0,218.0,0.0,575.0,0.725094577553594,0.1349206349206349
252,803,2.046444387815427e-05,False,34.0,219.0,0.0,574.0,0.7238335435056746,0.13438735177865613
253,756,1.992878969758749e-05,False,34.0,220.0,0.0,573.0,0.7225725094577553,0.13385826771653545
254,582,1.9878298189723864e-05,False,34.0,221.0,0.0,572.0,0.7213114754098361,0.13333333333333333
255,168,1.9251867342973128e-05,False,34.0,222.0,0.0,571.0,0.7200504413619168,0.1328125
256,272,1.8871292922995053e-05,False,34.0,223.0,0.0,570.0,0.7187894073139974,0.13229571984435798
257,781,1.8514940165914595e-05,False,34.0,224.0,0.0,569.0,0.7175283732660782,0.13178294573643412
258,243,1.8352697225054726e-05,False,34.0,225.0,0.0,568.0,0.7162673392181589,0.13127413127413126
259,305,1.8267499399371445e-05,False,34.0,226.0,0.0,567.0,0.7150063051702396,0.13076923076923078
260,96,1.7910228052642196e-05,False,34.0,227.0,0.0,566.0,0.7137452711223203,0.13026819923371646
261,80,1.773226904333569e-05,False,34.0,228.0,0.0,565.0,0.712484237074401,0.1297709923664122
262,732,1.7411199223715812e-05,False,34.0,229.0,0.0,564.0,0.7112232030264817,0.12927756653992395
263,480,1.7013822798617184e-05,False,34.0,230.0,0.0,563.0,0.7099621689785625,0.12878787878787878
264,262,1.681676076259464e-05,False,34.0,231.0,0.0,562.0,0.7087011349306431,0.12830188679245283
265,177,1.5865418390603736e-05,False,34.0,232.0,0.0,561.0,0.7074401008827238,0.12781954887218044
266,750,1.5820665794308297e-05,False,34.0,233.0,0.0,560.0,0.7061790668348046,0.12734082397003746
267,766,1.5325846106861718e-05,False,34.0,234.0,0.0,559.0,0.7049180327868853,0.12686567164179105
268,287,1.4933832972019445e-05,False,34.0,235.0,0.0,558.0,0.7036569987389659,0.12639405204460966
269,312,1.4446593013417441e-05,False,34.0,236.0,0.0,557.0,0.7023959646910467,0.1259259259259259
270,584,1.4089749129198026e-05,False,34.0,237.0,0.0,556.0,0.7011349306431274,0.12546125461254612
271,319,1.395125400449615e-05,False,34.0,238.0,0.0,555.0,0.699873896595208,0.125
272,128,1.365139632980572e-05,False,34.0,239.0,0.0,554.0,0.6986128625472888,0.12454212454212454
273,424,1.3548080460168421e-05,False,34.0,240.0,0.0,553.0,0.6973518284993695,0.12408759124087591
274,229,1.3290180504554883e-05,False,34.0,241.0,0.0,552.0,0.6960907944514502,0.12363636363636364
275,126,1.2997588783036917e-05,False,34.0,242.0,0.0,551.0,0.694829760403531,0.12318840579710146
276,260,1.215185875480529e-05,False,34.0,243.0,0.0,550.0,0.6935687263556116,0.12274368231046931
277,54,1.1925108083232772e-05,False,34.0,244.0,0.0,549.0,0.6923076923076923,0.1223021582733813
278,62,1.1871414244524203e-05,False,34.0,245.0,0.0,548.0,0.691046658259773,0.12186379928315412
279,741,1.1613245987973642e-05,False,34.0,246.0,0.0,547.0,0.6897856242118537,0.12142857142857143
280,590,1.1566844477783889e-05,False,34.0,247.0,0.0,546.0,0.6885245901639344,0.12099644128113879
281,609,1.1520300176925957e-05,False,34.0,248.0,0.0,545.0,0.6872635561160151,0.12056737588652482
282,775,1.1479392924229614e-05,False,34.0,249.0,0.0,544.0,0.6860025220680959,0.12014134275618374
283,403,1.1452580110926647e-05,False,34.0,250.0,0.0,543.0,0.6847414880201765,0.11971830985915492
284,33,1.1236637874389999e-05,False,34.0,251.0,0.0,542.0,0.6834804539722572,0.11929824561403508
285,234,1.1228528819628991e-05,False,34.0,252.0,0.0,541.0,0.682219419924338,0.11888111888111888
286,566,1.1216949133086018e-05,False,34.0,253.0,0.0,540.0,0.6809583858764187,0.11846689895470383
287,370,1.0997255230904557e-05,False,34.0,254.0,0.0,539.0,0.6796973518284993,0.11805555555555555
288,795,1.0822102922247723e-05,False,34.0,255.0,0.0,538.0,0.6784363177805801,0.11764705882352941
289,787,1.0660420230124146e-05,False,34.0,256.0,0.0,537.0,0.6771752837326608,0.11724137931034483
290,193,1.065582637238549e-05,False,34.0,257.0,0.0,536.0,0.6759142496847415,0.11683848797250859
291,664,1.0401610779808834e-05,False,34.0,258.0,0.0,535.0,0.6746532156368222,0.11643835616438356
292,823,1.0322072739654686e-05,False,34.0,259.0,0.0,534.0,0.6733921815889029,0.11604095563139932
293,780,1.018420334730763e-05,False,34.0,260.0,0.0,533.0,0.6721311475409836,0.11564625850340136
294,406,1.0123873835254926e-05,False,34.0,261.0,0.0,532.0,0.6708701134930644,0.1152542372881356
295,246,1.0071737051475793e-05,False,34.0,262.0,0.0,531.0,0.669609079445145,0.11486486486486487
296,726,1.0038031177828088e-05,False,34.0,263.0,0.0,530.0,0.6683480453972257,0.11447811447811448
297,591,9.966661309590563e-06,False,34.0,264.0,0.0,529.0,0.6670870113493065,0.11409395973154363
298,454,9.919816875481047e-06,False,34.0,265.0,0.0,528.0,0.6658259773013872,0.11371237458193979
299,592,9.726456482894719e-06,False,34.0,266.0,0.0,527.0,0.6645649432534678,0.11333333333333333
300,372,9.647581464378163e-06,False,34.0,267.0,0.0,526.0,0.6633039092055486,0.11295681063122924
301,149,9.550863978802226e-06,False,34.0,268.0,0.0,525.0,0.6620428751576293,0.11258278145695365
302,93,9.363847311760765e-06,False,34.0,269.0,0.0,524.0,0.6607818411097099,0.11221122112211221
303,79,9.158648026641458e-06,False,34.0,270.0,0.0,523.0,0.6595208070617906,0.1118421052631579
304,363,8.980022357718553e-06,False,34.0,271.0,0.0,522.0,0.6582597730138714,0.11147540983606558
305,333,8.929040632210672e-06,False,34.0,272.0,0.0,521.0,0.6569987389659521,0.1111111111111111
306,640,8.779758900345769e-06,False,34.0,273.0,0.0,520.0,0.6557377049180327,0.11074918566775244
307,776,8.771246939431876e-06,False,34.0,274.0,0.0,519.0,0.6544766708701135,0.11038961038961038
308,390,8.73317003424745e-06,False,34.0,275.0,0.0,518.0,0.6532156368221942,0.11003236245954692
309,211,8.69710675033275e-06,False,34.0,276.0,0.0,517.0,0.6519546027742749,0.10967741935483871
310,821,8.690423783264123e-06,False,34.0,277.0,0.0,516.0,0.6506935687263556,0.10932475884244373
311,12,8.672507647133898e-06,False,34.0,278.0,0.0,515.0,0.6494325346784363,0.10897435897435898
312,124,8.55342295835726e-06,False,34.0,279.0,0.0,514.0,0.648171500630517,0.10862619808306709
313,519,8.484043974021915e-06,False,34.0,280.0,0.0,513.0,0.6469104665825978,0.10828025477707007
314,723,8.308023097924888e-06,False,34.0,281.0,0.0,512.0,0.6456494325346784,0.10793650793650794
315,456,8.250298378698062e-06,False,34.0,282.0,0.0,511.0,0.6443883984867591,0.10759493670886076
316,224,8.24300786916865e-06,False,34.0,283.0,0.0,510.0,0.6431273644388399,0.10725552050473186
317,204,8.141823855112307e-06,False,34.0,284.0,0.0,509.0,0.6418663303909206,0.1069182389937107
318,539,8.105063898256049e-06,False,34.0,285.0,0.0,508.0,0.6406052963430012,0.10658307210031348
319,19,8.003100447240286e-06,False,34.0,286.0,0.0,507.0,0.639344262295082,0.10625
320,381,7.811001523805317e-06,False,34.0,287.0,0.0,506.0,0.6380832282471627,0.1059190031152648
321,64,7.630897016497329e-06,False,34.0,288.0,0.0,505.0,0.6368221941992434,0.10559006211180125
322,223,7.572855793114286e-06,False,34.0,289.0,0.0,504.0,0.6355611601513241,0.10526315789473684
323,395,7.43225746191456e-06,False,34.0,290.0,0.0,503.0,0.6343001261034048,0.10493827160493827
324,468,7.410034413624089e-06,False,34.0,291.0,0.0,502.0,0.6330390920554855,0.10461538461538461
325,295,7.400288723147241e-06,False,34.0,292.0,0.0,501.0,0.6317780580075663,0.10429447852760736
326,150,7.26137022866169e-06,False,34.0,293.0,0.0,500.0,0.6305170239596469,0.10397553516819572
327,324,7.140344223444117e-06,False,34.0,294.0,0.0,499.0,0.6292559899117276,0.10365853658536585
328,746,7.066524631227367e-06,False,34.0,295.0,0.0,498.0,0.6279949558638083,0.1033434650455927
329,391,7.000975529081188e-06,False,34.0,296.0,0.0,497.0,0.626733921815889,0.10303030303030303
330,357,6.975104497541906e-06,False,34.0,297.0,0.0,496.0,0.6254728877679697,0.1027190332326284
331,638,6.839854904683307e-06,False,34.0,298.0,0.0,495.0,0.6242118537200504,0.10240963855421686
332,464,6.79886352372705e-06,False,34.0,299.0,0.0,494.0,0.6229508196721312,0.1021021021021021
333,809,6.7058840613754e-06,False,34.0,300.0,0.0,493.0,0.6216897856242118,0.10179640718562874
334,238,6.679491889372002e-06,False,34.0,301.0,0.0,492.0,0.6204287515762925,0.10149253731343283
335,111,6.675741133221891e-06,False,34.0,302.0,0.0,491.0,0.6191677175283733,0.10119047619047619
336,606,6.616971404582728e-06,False,34.0,303.0,0.0,490.0,0.617906683480454,0.10089020771513353
337,757,6.61065769236302e-06,False,34.0,304.0,0.0,489.0,0.6166456494325346,0.10059171597633136
338,571,6.600527740374673e-06,False,34.0,305.0,0.0,488.0,0.6153846153846154,0.10029498525073746
339,597,6.4716955421317834e-06,False,34.0,306.0,0.0,487.0,0.6141235813366961,0.1
340,200,6.33867011856637e-06,False,34.0,307.0,0.0,486.0,0.6128625472887768,0.09970674486803519
341,402,6.218986527528614e-06,False,34.0,308.0,0.0,485.0,0.6116015132408575,0.09941520467836257
342,533,6.169795597088523e-06,False,34.0,309.0,0.0,484.0,0.6103404791929382,0.09912536443148688
343,518,6.155831215437502e-06,False,34.0,310.0,0.0,483.0,0.6090794451450189,0.09883720930232558
344,202,6.146503892523469e-06,False,34.0,311.0,0.0,482.0,0.6078184110970997,0.09855072463768116
345,74,6.138314347481355e-06,False,34.0,312.0,0.0,481.0,0.6065573770491803,0.09826589595375723
346,42,6.125279924162896e-06,False,34.0,313.0,0.0,480.0,0.605296343001261,0.09798270893371758
347,504,6.093421689001843e-06,False,34.0,314.0,0.0,479.0,0.6040353089533418,0.09770114942528736
348,559,5.715326551580802e-06,False,34.0,315.0,0.0,478.0,0.6027742749054225,0.09742120343839542
349,442,5.669789970852435e-06,False,34.0,316.0,0.0,477.0,0.6015132408575031,0.09714285714285714
350,206,5.651607807521941e-06,False,34.0,317.0,0.0,476.0,0.6002522068095839,0.09686609686609686
351,69,5.60296530238702e-06,False,34.0,318.0,0.0,475.0,0.5989911727616646,0.09659090909090909
352,679,5.387661076383665e-06,False,34.0,319.0,0.0,474.0,0.5977301387137453,0.09631728045325778
353,176,5.38562198926229e-06,False,34.0,320.0,0.0,473.0,0.5964691046658259,0.096045197740113
354,786,5.181090273254085e-06,False,34.0,321.0,0.0,472.0,0.5952080706179067,0.09577464788732394
355,314,5.112082362757064e-06,False,34.0,322.0,0.0,471.0,0.5939470365699874,0.09550561797752809
356,178,5.109533503855346e-06,False,34.0,323.0,0.0,470.0,0.592686002522068,0.09523809523809523
357,439,5.092472747492138e-06,False,34.0,324.0,0.0,469.0,0.5914249684741488,0.09497206703910614
358,813,5.050299478170928e-06,False,34.0,325.0,0.0,468.0,0.5901639344262295,0.0947075208913649
359,558,4.955390977556817e-06,False,34.0,326.0,0.0,467.0,0.5889029003783102,0.09444444444444444
360,511,4.893466211797204e-06,False,34.0,327.0,0.0,466.0,0.587641866330391,0.09418282548476455
361,362,4.76605282528908e-06,False,34.0,328.0,0.0,465.0,0.5863808322824716,0.09392265193370165
362,187,4.687953151005786e-06,False,34.0,329.0,0.0,464.0,0.5851197982345523,0.09366391184573003
363,805,4.624587290891213e-06,False,34.0,330.0,0.0,463.0,0.5838587641866331,0.09340659340659341
364,719,4.619121682480909e-06,False,34.0,331.0,0.0,462.0,0.5825977301387137,0.09315068493150686
365,735,4.617963440978201e-06,False,34.0,332.0,0.0,461.0,0.5813366960907944,0.09289617486338798
366,616,4.529745183390332e-06,False,34.0,333.0,0.0,460.0,0.5800756620428752,0.09264305177111716
367,325,4.509882728598313e-06,False,34.0,334.0,0.0,459.0,0.5788146279949559,0.09239130434782608
368,102,4.506077857513446e-06,False,34.0,335.0,0.0,458.0,0.5775535939470365,0.0921409214092141
369,675,4.440992597665172e-06,False,34.0,336.0,0.0,457.0,0.5762925598991173,0.0918918918918919
370,458,4.343146883911686e-06,False,34.0,337.0,0.0,456.0,0.575031525851198,0.09164420485175202
371,648,4.293726760806749e-06,False,34.0,338.0,0.0,455.0,0.5737704918032787,0.0913978494623656
372,201,4.262556103640236e-06,False,34.0,339.0,0.0,454.0,0.5725094577553594,0.09115281501340483
373,127,4.151067059865454e-06,False,34.0,340.0,0.0,453.0,0.5712484237074401,0.09090909090909091
374,300,4.137616997468285e-06,False,34.0,341.0,0.0,452.0,0.5699873896595208,0.09066666666666667
375,115,4.075975539308274e-06,False,34.0,342.0,0.0,451.0,0.5687263556116016,0.09042553191489362
376,156,4.023333076474955e-06,False,34.0,343.0,0.0,450.0,0.5674653215636822,0.09018567639257294
377,783,4.020586402475601e-06,False,34.0,344.0,0.0,449.0,0.5662042875157629,0.08994708994708994
378,213,4.008407813671511e-06,False,34.0,345.0,0.0,448.0,0.5649432534678437,0.08970976253298153
379,673,3.877172730426537e-06,False,34.0,346.0,0.0,447.0,0.5636822194199244,0.08947368421052632
380,647,3.832283709925832e-06,False,34.0,347.0,0.0,446.0,0.562421185372005,0.08923884514435695
381,258,3.800771082751453e-06,False,34.0,348.0,0.0,445.0,0.5611601513240857,0.08900523560209424
382,282,3.6709627693198854e-06,False,34.0,349.0,0.0,444.0,0.5598991172761665,0.08877284595300261
383,713,3.659016101664747e-06,False,34.0,350.0,0.0,443.0,0.5586380832282472,0.08854166666666667
384,24,3.5910240967496065e-06,False,34.0,351.0,0.0,442.0,0.5573770491803278,0.08831168831168831
385,45,3.590565256672562e-06,False,34.0,352.0,0.0,441.0,0.5561160151324086,0.08808290155440414
386,718,3.590031155908946e-06,False,34.0,353.0,0.0,440.0,0.5548549810844893,0.08785529715762273
387,788,3.5563941764849005e-06,False,34.0,354.0,0.0,439.0,0.5535939470365699,0.08762886597938144
388,4,3.5334628591954242e-06,False,34.0,355.0,0.0,438.0,0.5523329129886507,0.08740359897172237
389,524,3.531913080223603e-06,False,34.0,356.0,0.0,437.0,0.5510718789407314,0.08717948717948718
390,155,3.430100377954659e-06,False,34.0,357.0,0.0,436.0,0.5498108448928121,0.08695652173913043
391,291,3.399115712454659e-06,False,34.0,358.0,0.0,435.0,0.5485498108448928,0.08673469387755102
392,491,3.347722895341576e-06,False,34.0,359.0,0.0,434.0,0.5472887767969735,0.08651399491094147
393,375,3.3220223940588767e-06,False,34.0,360.0,0.0,433.0,0.5460277427490542,0.08629441624365482
394,207,3.3160747534566326e-06,False,34.0,361.0,0.0,432.0,0.544766708701135,0.08607594936708861
395,451,3.277306859672535e-06,False,34.0,362.0,0.0,431.0,0.5435056746532156,0.08585858585858586
396,778,3.2528075735172024e-06,False,34.0,363.0,0.0,430.0,0.5422446406052963,0.08564231738035265
397,26,3.251567022743984e-06,False,34.0,364.0,0.0,429.0,0.5409836065573771,0.08542713567839195
398,242,3.1810463951842394e-06,False,34.0,365.0,0.0,428.0,0.5397225725094578,0.08521303258145363
399,646,3.173640607201378e-06,False,34.0,366.0,0.0,427.0,0.5384615384615384,0.085
400,538,3.1676836442784406e-06,False,34.0,367.0,0.0,426.0,0.5372005044136192,0.08478802992518704
401,247,3.1675690479460172e-06,False,34.0,368.0,0.0,425.0,0.5359394703656999,0.0845771144278607
402,396,3.1130018669500714e-06,False,34.0,369.0,0.0,424.0,0.5346784363177806,0.08436724565756824
403,409,3.0872097340761684e-06,False,34.0,370.0,0.0,423.0,0.5334174022698613,0.08415841584158416
404,669,3.0711848921782803e-06,False,34.0,371.0,0.0,422.0,0.532156368221942,0.08395061728395062
405,371,3.0210976547095925e-06,False,34.0,372.0,0.0,421.0,0.5308953341740227,0.08374384236453201
406,397,2.9836746762157418e-06,False,34.0,373.0,0.0,420.0,0.5296343001261034,0.08353808353808354
407,461,2.9769953471259214e-06,False,34.0,374.0,0.0,419.0,0.5283732660781841,0.08333333333333333
408,603,2.970087280118605e-06,False,34.0,375.0,0.0,418.0,0.5271122320302648,0.08312958435207823
409,135,2.965759676953894e-06,False,34.0,376.0,0.0,417.0,0.5258511979823455,0.08292682926829269
410,789,2.952406020995113e-06,False,34.0,377.0,0.0,416.0,0.5245901639344263,0.0827250608272506
411,264,2.952116119558923e-06,False,34.0,378.0,0.0,415.0,0.5233291298865069,0.0825242718446602
412,467,2.8812232812924776e-06,False,34.0,379.0,0.0,414.0,0.5220680958385876,0.08232445520581114
413,183,2.813532319123624e-06,False,34.0,380.0,0.0,413.0,0.5208070617906684,0.0821256038647343
414,619,2.746258360275533e-06,False,34.0,381.0,0.0,412.0,0.519546027742749,0.0819277108433735
415,389,2.726459570112638e-06,False,34.0,382.0,0.0,411.0,0.5182849936948297,0.08173076923076923
416,121,2.6950165192829445e-06,False,34.0,383.0,0.0,410.0,0.5170239596469105,0.0815347721822542
417,736,2.6580764824757352e-06,False,34.0,384.0,0.0,409.0,0.5157629255989912,0.08133971291866028
418,661,2.634352085806313e-06,False,34.0,385.0,0.0,408.0,0.5145018915510718,0.081145584725537
419,94,2.5496735815977445e-06,False,34.0,386.0,0.0,407.0,0.5132408575031526,0.08095238095238096
420,394,2.543005393818021e-06,False,34.0,387.0,0.0,406.0,0.5119798234552333,0.08076009501187649
421,807,2.514711468393216e-06,False,34.0,388.0,0.0,405.0,0.510718789407314,0.08056872037914692
422,43,2.5082947558985325e-06,False,34.0,389.0,0.0,404.0,0.5094577553593947,0.08037825059101655
423,437,2.5007661861309316e-06,False,34.0,390.0,0.0,403.0,0.5081967213114754,0.08018867924528301
424,527,2.464976660121465e-06,False,34.0,391.0,0.0,402.0,0.5069356872635561,0.08
425,145,2.3498619157180656e-06,False,34.0,392.0,0.0,401.0,0.5056746532156369,0.07981220657276995
426,722,2.3469951884180773e-06,False,34.0,393.0,0.0,400.0,0.5044136191677175,0.07962529274004684
427,113,2.337009163966286e-06,False,34.0,394.0,0.0,399.0,0.5031525851197982,0.0794392523364486
428,676,2.3260340640263166e-06,False,34.0,395.0,0.0,398.0,0.501891551071879,0.07925407925407925
429,521,2.2464062112703687e-06,False,34.0,396.0,0.0,397.0,0.5006305170239597,0.07906976744186046
430,690,2.24045629693137e-06,False,34.0,397.0,0.0,396.0,0.49936948297604034,0.07888631090487239
431,175,2.2249466837820364e-06,False,34.0,398.0,0.0,395.0,0.49810844892812106,0.0787037037037037
432,167,2.2090241600380978e-06,False,34.0,399.0,0.0,394.0,0.4968474148802018,0.07852193995381063
433,180,2.2077963421907043e-06,False,34.0,400.0,0.0,393.0,0.49558638083228246,0.07834101382488479
434,271,2.1380847101681866e-06,False,34.0,401.0,0.0,392.0,0.4943253467843632,0.07816091954022988
435,34,2.1214480057096807e-06,False,34.0,402.0,0.0,391.0,0.4930643127364439,0.0779816513761468
436,346,2.118942802553647e-06,False,34.0,403.0,0.0,390.0,0.4918032786885246,0.07780320366132723
437,703,2.114783910656115e-06,False,34.0,404.0,0.0,389.0,0.4905422446406053,0.0776255707762557
438,509,2.049959448413574e-06,False,34.0,405.0,0.0,388.0,0.489281210592686,0.0774487471526196
439,162,2.0066320303158136e-06,False,34.0,406.0,0.0,387.0,0.4880201765447667,0.07727272727272727
440,327,2.0014526853628922e-06,False,34.0,407.0,0.0,386.0,0.48675914249684743,0.07709750566893424
441,71,1.966084937521373e-06,False,34.0,408.0,0.0,385.0,0.4854981084489281,0.07692307692307693
442,192,1.9603428427217295e-06,False,34.0,409.0,0.0,384.0,0.4842370744010088,0.07674943566591422
443,166,1.9431442979112035e-06,False,34.0,410.0,0.0,383.0,0.48297604035308955,0.07657657657657657
444,195,1.931727410919848e-06,False,34.0,411.0,0.0,382.0,0.4817150063051702,0.07640449438202247
445,477,1.917861254696618e-06,False,34.0,412.0,0.0,381.0,0.48045397225725095,0.07623318385650224
446,378,1.9144256384606706e-06,False,34.0,413.0,0.0,380.0,0.4791929382093317,0.07606263982102908
447,125,1.895728928502649e-06,False,34.0,414.0,0.0,379.0,0.47793190416141235,0.07589285714285714
448,376,1.882898459371063e-06,False,34.0,415.0,0.0,378.0,0.4766708701134931,0.0757238307349666
449,492,1.8688924683374353e-06,False,34.0,416.0,0.0,377.0,0.47540983606557374,0.07555555555555556
450,800,1.867488549578411e-06,False,34.0,417.0,0.0,376.0,0.47414880201765447,0.07538802660753881
451,708,1.816797407627746e-06,False,34.0,418.0,0.0,375.0,0.4728877679697352,0.0752212389380531
452,14,1.761070052452851e-06,False,34.0,419.0,0.0,374.0,0.47162673392181587,0.07505518763796909
453,433,1.7589333083378733e-06,False,34.0,420.0,0.0,373.0,0.4703656998738966,0.07488986784140969
454,545,1.736250737849332e-06,False,34.0,421.0,0.0,372.0,0.4691046658259773,0.07472527472527472
455,76,1.7154599163404782e-06,False,34.0,422.0,0.0,371.0,0.467843631778058,0.07456140350877193
456,631,1.7045695130946115e-06,False,34.0,423.0,0.0,370.0,0.4665825977301387,0.07439824945295405
457,63,1.675090288699721e-06,False,34.0,424.0,0.0,369.0,0.46532156368221944,0.07423580786026202
458,523,1.6480025806231424e-06,False,34.0,425.0,0.0,368.0,0.4640605296343001,0.07407407407407407
459,393,1.6153290971487877e-06,False,34.0,426.0,0.0,367.0,0.46279949558638084,0.07391304347826087
460,239,1.5778348370076856e-06,False,34.0,427.0,0.0,366.0,0.46153846153846156,0.0737527114967462
461,400,1.5758407698740484e-06,False,34.0,428.0,0.0,365.0,0.46027742749054223,0.0735930735930736
462,517,1.5414166227856185e-06,False,34.0,429.0,0.0,364.0,0.45901639344262296,0.0734341252699784
463,748,1.495834112574812e-06,False,34.0,430.0,0.0,363.0,0.45775535939470363,0.07327586206896551
464,198,1.4396756569112767e-06,False,34.0,431.0,0.0,362.0,0.45649432534678436,0.07311827956989247
465,429,1.4323011328087887e-06,False,34.0,432.0,0.0,361.0,0.4552332912988651,0.07296137339055794
466,443,1.4129680039332015e-06,False,34.0,433.0,0.0,360.0,0.45397225725094575,0.0728051391862955
467,158,1.4123388609732501e-06,False,34.0,434.0,0.0,359.0,0.4527112232030265,0.07264957264957266
468,503,1.4023105450178264e-06,False,34.0,435.0,0.0,358.0,0.4514501891551072,0.07249466950959488
469,754,1.3609687812277116e-06,False,34.0,436.0,0.0,357.0,0.4501891551071879,0.07234042553191489
470,44,1.3577706567957648e-06,False,34.0,437.0,0.0,356.0,0.4489281210592686,0.07218683651804671
471,688,1.3518440482584992e-06,False,34.0,438.0,0.0,355.0,0.44766708701134933,0.07203389830508475
472,589,1.3425793667920516e-06,False,34.0,439.0,0.0,354.0,0.44640605296343,0.07188160676532769
473,286,1.3405259551291238e-06,False,34.0,440.0,0.0,353.0,0.4451450189155107,0.07172995780590717
474,294,1.3392034361459082e-06,False,34.0,441.0,0.0,352.0,0.44388398486759145,0.07157894736842105
475,550,1.3250738675196772e-06,False,34.0,442.0,0.0,351.0,0.4426229508196721,0.07142857142857142
476,174,1.3199330624047434e-06,False,34.0,443.0,0.0,350.0,0.44136191677175285,0.07127882599580712
477,624,1.3154807447790517e-06,False,34.0,444.0,0.0,349.0,0.4401008827238335,0.07112970711297072
478,84,1.2625242788999458e-06,False,34.0,445.0,0.0,348.0,0.43883984867591425,0.0709812108559499
479,407,1.258325596609211e-06,False,34.0,446.0,0.0,347.0,0.43757881462799497,0.07083333333333333
480,132,1.2424611668393482e-06,False,34.0,447.0,0.0,346.0,0.43631778058007564,0.07068607068607069
481,554,1.2056492550982512e-06,False,34.0,448.0,0.0,345.0,0.43505674653215637,0.07053941908713693
482,334,1.1826388117697206e-06,False,34.0,449.0,0.0,344.0,0.4337957124842371,0.07039337474120083
483,444,1.1516845006553922e-06,False,34.0,450.0,0.0,343.0,0.43253467843631777,0.07024793388429752
484,531,1.145210489994497e-06,False,34.0,451.0,0.0,342.0,0.4312736443883985,0.07010309278350516
485,146,1.1413867468945682e-06,False,34.0,452.0,0.0,341.0,0.4300126103404792,0.06995884773662552
486,818,1.1186166375409812e-06,False,34.0,453.0,0.0,340.0,0.4287515762925599,0.06981519507186858
487,573,1.1074353096773848e-06,False,34.0,454.0,0.0,339.0,0.4274905422446406,0.06967213114754098
488,7,1.0943651886918815e-06,False,34.0,455.0,0.0,338.0,0.4262295081967213,0.06952965235173825
489,88,1.088977569452254e-06,False,34.0,456.0,0.0,337.0,0.424968474148802,0.06938775510204082
490,583,1.0835998409675085e-06,False,34.0,457.0,0.0,336.0,0.42370744010088274,0.06924643584521385
491,565,1.0823130196513375e-06,False,34.0,458.0,0.0,335.0,0.4224464060529634,0.06910569105691057
492,771,1.078793843589665e-06,False,34.0,459.0,0.0,334.0,0.42118537200504413,0.06896551724137931
493,60,1.032523755384318e-06,False,34.0,460.0,0.0,333.0,0.41992433795712486,0.06882591093117409
494,604,1.0091874855788774e-06,False,34.0,461.0,0.0,332.0,0.41866330390920553,0.06868686868686869
495,87,9.912502036968363e-07,False,34.0,462.0,0.0,331.0,0.41740226986128626,0.06854838709677419
496,199,9.857053555606399e-07,False,34.0,463.0,0.0,330.0,0.416141235813367,0.06841046277665996
497,137,9.838495316216722e-07,False,34.0,464.0,0.0,329.0,0.41488020176544765,0.06827309236947791
498,317,9.625290431358735e-07,False,34.0,465.0,0.0,328.0,0.4136191677175284,0.06813627254509018
499,476,9.57065481088648e-07,False,34.0,466.0,0.0,327.0,0.4123581336696091,0.068
500,715,9.449929052607331e-07,False,34.0,467.0,0.0,326.0,0.4110970996216898,0.06786427145708583
501,699,9.4383642590401e-07,False,34.0,468.0,0.0,325.0,0.4098360655737705,0.06772908366533864
502,599,9.28540089262242e-07,False,34.0,469.0,0.0,324.0,0.4085750315258512,0.06759443339960239
503,66,9.152610118690063e-07,False,34.0,470.0,0.0,323.0,0.4073139974779319,0.06746031746031746
504,543,9.10898393158277e-07,False,34.0,471.0,0.0,322.0,0.4060529634300126,0.06732673267326733
505,499,9.088020647141093e-07,False,34.0,472.0,0.0,321.0,0.4047919293820933,0.06719367588932806
506,816,8.920150094127166e-07,False,34.0,473.0,0.0,320.0,0.403530895334174,0.0670611439842209
507,297,8.796071711003606e-07,False,34.0,474.0,0.0,319.0,0.40226986128625475,0.06692913385826772
508,486,8.670294846524484e-07,False,34.0,475.0,0.0,318.0,0.4010088272383354,0.06679764243614932
509,191,8.591130722379603e-07,False,34.0,476.0,0.0,317.0,0.39974779319041615,0.06666666666666667
510,569,8.512080853506632e-07,False,34.0,477.0,0.0,316.0,0.39848675914249687,0.06653620352250489
511,299,8.42215172269789e-07,False,34.0,478.0,0.0,315.0,0.39722572509457754,0.06640625
512,513,8.393854500354792e-07,False,34.0,479.0,0.0,314.0,0.39596469104665827,0.06627680311890838
513,625,8.176009487215197e-07,False,34.0,480.0,0.0,313.0,0.39470365699873894,0.06614785992217899
514,25,8.007600627024658e-07,False,34.0,481.0,0.0,312.0,0.39344262295081966,0.06601941747572816
515,660,7.966635848788428e-07,False,34.0,482.0,0.0,311.0,0.3921815889029004,0.06589147286821706
516,142,7.72160205997352e-07,False,34.0,483.0,0.0,310.0,0.39092055485498106,0.06576402321083172
517,165,7.671974913137092e-07,False,34.0,484.0,0.0,309.0,0.3896595208070618,0.06563706563706563
518,460,7.67063625062292e-07,False,34.0,485.0,0.0,308.0,0.3883984867591425,0.06551059730250482
519,83,7.66542939345527e-07,False,34.0,486.0,0.0,307.0,0.3871374527112232,0.06538461538461539
520,537,7.642684067832306e-07,False,34.0,487.0,0.0,306.0,0.3858764186633039,0.06525911708253358
521,103,7.642523769391119e-07,False,34.0,488.0,0.0,305.0,0.38461538461538464,0.06513409961685823
522,100,7.606139433846693e-07,False,34.0,489.0,0.0,304.0,0.3833543505674653,0.06500956022944551
523,301,7.418763061650679e-07,False,34.0,490.0,0.0,303.0,0.38209331651954603,0.0648854961832061
524,685,7.065220870572375e-07,False,34.0,491.0,0.0,302.0,0.38083228247162676,0.06476190476190476
525,90,7.054408115436672e-07,False,34.0,492.0,0.0,301.0,0.37957124842370743,0.06463878326996197
526,161,7.044471317385614e-07,False,34.0,493.0,0.0,300.0,0.37831021437578816,0.06451612903225806
527,680,6.971795869503694e-07,False,34.0,494.0,0.0,299.0,0.3770491803278688,0.06439393939393939
528,310,6.923025352989498e-07,False,34.0,495.0,0.0,298.0,0.37578814627994955,0.06427221172022685
529,265,6.681731292701443e-07,False,34.0,496.0,0.0,297.0,0.3745271122320303,0.06415094339622641
530,119,6.558922223121044e-07,False,34.0,497.0,0.0,296.0,0.37326607818411095,0.064030131826742
531,82,6.516499979625223e-07,False,34.0,498.0,0.0,295.0,0.3720050441361917,0.06390977443609022
532,5,6.513269568131363e-07,False,34.0,499.0,0.0,294.0,0.3707440100882724,0.06378986866791744
533,97,6.483584229499684e-07,False,34.0,500.0,0.0,293.0,0.3694829760403531,0.06367041198501873
534,216,6.466238460234308e-07,False,34.0,501.0,0.0,292.0,0.3682219419924338,0.06355140186915888
535,228,6.377175623129006e-07,False,34.0,502.0,0.0,291.0,0.3669609079445145,0.06343283582089553
536,630,6.332286375254625e-07,False,34.0,503.0,0.0,290.0,0.3656998738965952,0.0633147113594041
537,152,6.295772436715197e-07,False,34.0,504.0,0.0,289.0,0.3644388398486759,0.06319702602230483
538,796,6.269977461670351e-07,False,34.0,505.0,0.0,288.0,0.36317780580075665,0.06307977736549165
539,275,6.257713494051131e-07,False,34.0,506.0,0.0,287.0,0.3619167717528373,0.06296296296296296
540,484,6.230618510016939e-07,False,34.0,507.0,0.0,286.0,0.36065573770491804,0.06284658040665435
541,717,6.194454726937693e-07,False,34.0,508.0,0.0,285.0,0.3593947036569987,0.06273062730627306
542,374,6.182638685459096e-07,False,34.0,509.0,0.0,284.0,0.35813366960907944,0.06261510128913444
543,109,6.082381673877535e-07,False,34.0,510.0,0.0,283.0,0.35687263556116017,0.0625
544,81,6.031958150742867e-07,False,34.0,511.0,0.0,282.0,0.35561160151324084,0.062385321100917435
545,254,5.993224476696923e-07,False,34.0,512.0,0.0,281.0,0.35435056746532156,0.06227106227106227
546,620,5.937988589721499e-07,False,34.0,513.0,0.0,280.0,0.3530895334174023,0.062157221206581355
547,490,5.926644917053636e-07,False,34.0,514.0,0.0,279.0,0.35182849936948296,0.06204379562043796
548,179,5.747824616264552e-07,False,34.0,515.0,0.0,278.0,0.3505674653215637,0.061930783242258654
549,101,5.567706011788687e-07,False,34.0,516.0,0.0,277.0,0.3493064312736444,0.06181818181818182
550,184,5.567461585087585e-07,False,34.0,517.0,0.0,276.0,0.3480453972257251,0.06170598911070781
551,716,5.483744871526142e-07,False,34.0,518.0,0.0,275.0,0.3467843631778058,0.06159420289855073
552,55,5.467030064210121e-07,False,34.0,519.0,0.0,274.0,0.3455233291298865,0.06148282097649186
553,221,5.413126586972794e-07,False,34.0,520.0,0.0,273.0,0.3442622950819672,0.061371841155234655
554,542,5.390073738453793e-07,False,34.0,521.0,0.0,272.0,0.34300126103404793,0.06126126126126126
555,388,5.23750372849463e-07,False,34.0,522.0,0.0,271.0,0.3417402269861286,0.06115107913669065
556,731,5.229812245488574e-07,False,34.0,523.0,0.0,270.0,0.34047919293820933,0.06104129263913824
557,474,5.176884769753087e-07,False,34.0,524.0,0.0,269.0,0.33921815889029006,0.06093189964157706
558,399,5.174554758013983e-07,False,34.0,525.0,0.0,268.0,0.3379571248423707,0.06082289803220036
559,487,5.168335519556422e-07,False,34.0,526.0,0.0,267.0,0.33669609079445145,0.060714285714285714
560,459,5.109501444167108e-07,False,34.0,527.0,0.0,266.0,0.3354350567465322,0.06060606060606061
561,471,5.062472610006807e-07,False,34.0,528.0,0.0,265.0,0.33417402269861285,0.060498220640569395
562,742,5.055828751210356e-07,False,34.0,529.0,0.0,264.0,0.3329129886506936,0.06039076376554174
563,53,5.042159045842709e-07,False,34.0,530.0,0.0,263.0,0.3316519546027743,0.06028368794326241
564,78,5.038755830355512e-07,False,34.0,531.0,0.0,262.0,0.33039092055485497,0.06017699115044248
565,570,5.033385832575732e-07,False,34.0,532.0,0.0,261.0,0.3291298865069357,0.06007067137809187
566,194,5.031778300690348e-07,False,34.0,533.0,0.0,260.0,0.32786885245901637,0.059964726631393295
567,147,4.998570943826053e-07,False,34.0,534.0,0.0,259.0,0.3266078184110971,0.05985915492957746
568,235,4.983701273886254e-07,False,34.0,535.0,0.0,258.0,0.3253467843631778,0.05975395430579965
569,231,4.957496457791422e-07,False,34.0,536.0,0.0,257.0,0.3240857503152585,0.05964912280701754
570,133,4.86679141431523e-07,False,34.0,537.0,0.0,256.0,0.3228247162673392,0.0595446584938704
571,551,4.864174343310879e-07,False,34.0,538.0,0.0,255.0,0.32156368221941994,0.05944055944055944
572,215,4.800710939889541e-07,False,34.0,539.0,0.0,254.0,0.3203026481715006,0.059336823734729496
573,684,4.791485253008432e-07,False,34.0,540.0,0.0,253.0,0.31904161412358134,0.059233449477351915
574,808,4.7215704057634866e-07,False,34.0,541.0,0.0,252.0,0.31778058007566207,0.059130434782608696
575,276,4.6122789854052826e-07,False,34.0,542.0,0.0,251.0,0.31651954602774274,0.059027777777777776
576,544,4.591739184434118e-07,False,34.0,543.0,0.0,250.0,0.31525851197982346,0.058925476603119586
577,448,4.5730527631349105e-07,False,34.0,544.0,0.0,249.0,0.31399747793190413,0.058823529411764705
578,171,4.572132468183554e-07,False,34.0,545.0,0.0,248.0,0.31273644388398486,0.05872193436960276
579,628,4.5177668539508886e-07,False,34.0,546.0,0.0,247.0,0.3114754098360656,0.05862068965517241
580,820,4.4823141820415913e-07,False,34.0,547.0,0.0,246.0,0.31021437578814626,0.058519793459552494
581,755,4.445392960406025e-07,False,34.0,548.0,0.0,245.0,0.308953341740227,0.058419243986254296
582,338,4.3335913346709276e-07,False,34.0,549.0,0.0,244.0,0.3076923076923077,0.058319039451114926
583,697,4.306827463551599e-07,False,34.0,550.0,0.0,243.0,0.3064312736443884,0.05821917808219178
584,449,4.2643793563001964e-07,False,34.0,551.0,0.0,242.0,0.3051702395964691,0.05811965811965812
585,595,4.175331582700892e-07,False,34.0,552.0,0.0,241.0,0.30390920554854983,0.05802047781569966
586,575,4.0430819581160904e-07,False,34.0,553.0,0.0,240.0,0.3026481715006305,0.05792163543441227
587,773,3.973758566644392e-07,False,34.0,554.0,0.0,239.0,0.30138713745271123,0.05782312925170068
588,586,3.963857011513028e-07,False,34.0,555.0,0.0,238.0,0.30012610340479196,0.057724957555178265
589,186,3.9290549125325924e-07,False,34.0,556.0,0.0,237.0,0.2988650693568726,0.0576271186440678
590,65,3.9176916288852226e-07,False,34.0,557.0,0.0,236.0,0.29760403530895335,0.05752961082910321
591,457,3.9001520235615317e-07,False,34.0,558.0,0.0,235.0,0.296343001261034,0.057432432432432436
592,315,3.8099068433439243e-07,False,34.0,559.0,0.0,234.0,0.29508196721311475,0.05733558178752108
593,445,3.772313448280329e-07,False,34.0,560.0,0.0,233.0,0.2938209331651955,0.05723905723905724
594,730,3.756904334295541e-07,False,34.0,561.0,0.0,232.0,0.29255989911727615,0.05714285714285714
595,465,3.7479793491002056e-07,False,34.0,562.0,0.0,231.0,0.29129886506935687,0.05704697986577181
596,729,3.739225178378547e-07,False,34.0,563.0,0.0,230.0,0.2900378310214376,0.05695142378559464
597,123,3.7171244571254647e-07,False,34.0,564.0,0.0,229.0,0.28877679697351827,0.056856187290969896
598,114,3.634731342572195e-07,False,34.0,565.0,0.0,228.0,0.287515762925599,0.05676126878130217
599,798,3.602891069931502e-07,False,34.0,566.0,0.0,227.0,0.2862547288776797,0.056666666666666664
600,361,3.493381086627778e-07,False,34.0,567.0,0.0,226.0,0.2849936948297604,0.056572379367720464
601,386,3.480976147329784e-07,False,34.0,568.0,0.0,225.0,0.2837326607818411,0.05647840531561462
602,473,3.4631520406946947e-07,False,34.0,569.0,0.0,224.0,0.28247162673392184,0.05638474295190713
603,540,3.4064609621964337e-07,False,34.0,570.0,0.0,223.0,0.2812105926860025,0.056291390728476824
604,404,3.3609424576752644e-07,False,34.0,571.0,0.0,222.0,0.27994955863808324,0.05619834710743802
605,529,3.358321691848687e-07,False,34.0,572.0,0.0,221.0,0.2786885245901639,0.056105610561056105
606,270,3.3564995760571037e-07,False,34.0,573.0,0.0,220.0,0.27742749054224464,0.05601317957166392
607,401,3.2703957231206005e-07,False,34.0,574.0,0.0,219.0,0.27616645649432536,0.05592105263157895
608,134,3.1944057354849065e-07,False,34.0,575.0,0.0,218.0,0.27490542244640603,0.05582922824302135
609,812,3.189723827290436e-07,False,34.0,576.0,0.0,217.0,0.27364438839848676,0.05573770491803279
610,434,3.1509242148786143e-07,False,34.0,577.0,0.0,216.0,0.2723833543505675,0.05564648117839607
611,546,3.1189017590804724e-07,False,34.0,578.0,0.0,215.0,0.27112232030264816,0.05555555555555555
612,802,3.091742541982967e-07,False,34.0,579.0,0.0,214.0,0.2698612862547289,0.05546492659053834
613,417,3.0861306754559337e-07,False,34.0,580.0,0.0,213.0,0.2686002522068096,0.05537459283387622
614,136,3.0249563565121207e-07,False,34.0,581.0,0.0,212.0,0.2673392181588903,0.055284552845528454
615,475,2.999238404299831e-07,False,34.0,582.0,0.0,211.0,0.266078184110971,0.05519480519480519
616,261,2.9918223276581557e-07,False,34.0,583.0,0.0,210.0,0.2648171500630517,0.055105348460291734
617,508,2.991776568705973e-07,False,34.0,584.0,0.0,209.0,0.2635561160151324,0.05501618122977346
618,654,2.9121864031367295e-07,False,34.0,585.0,0.0,208.0,0.26229508196721313,0.05492730210016155
619,232,2.797154934341961e-07,False,34.0,586.0,0.0,207.0,0.2610340479192938,0.054838709677419356
620,791,2.7038555572289624e-07,False,34.0,587.0,0.0,206.0,0.2597730138713745,0.05475040257648953
621,277,2.682222941530199e-07,False,34.0,588.0,0.0,205.0,0.25851197982345525,0.05466237942122187
622,738,2.6258052798766585e-07,False,34.0,589.0,0.0,204.0,0.2572509457755359,0.05457463884430177
623,633,2.568968966443208e-07,False,34.0,590.0,0.0,203.0,0.25598991172761665,0.05448717948717949
624,292,2.5186415086864145e-07,False,34.0,591.0,0.0,202.0,0.2547288776796974,0.0544
625,432,2.5092887767641514e-07,False,34.0,592.0,0.0,201.0,0.25346784363177804,0.054313099041533544
626,612,2.467447473009088e-07,False,34.0,593.0,0.0,200.0,0.25220680958385877,0.05422647527910686
627,674,2.4122780928337306e-07,False,34.0,594.0,0.0,199.0,0.2509457755359395,0.054140127388535034
628,214,2.3807116633633996e-07,False,34.0,595.0,0.0,198.0,0.24968474148802017,0.05405405405405406
629,440,2.3680425442762498e-07,False,34.0,596.0,0.0,197.0,0.2484237074401009,0.05396825396825397
630,567,2.3368163226678007e-07,False,34.0,597.0,0.0,196.0,0.2471626733921816,0.05388272583201268
631,793,2.335103204131883e-07,False,34.0,598.0,0.0,195.0,0.2459016393442623,0.05379746835443038
632,627,2.299694585872203e-07,False,34.0,599.0,0.0,194.0,0.244640605296343,0.053712480252764615
633,56,2.2754116457690543e-07,False,34.0,600.0,0.0,193.0,0.24337957124842372,0.05362776025236593
634,822,2.271634684802848e-07,False,34.0,601.0,0.0,192.0,0.2421185372005044,0.05354330708661417
635,218,2.2406730693091959e-07,False,34.0,602.0,0.0,191.0,0.2408575031525851,0.05345911949685535
636,39,2.1946392791960534e-07,False,34.0,603.0,0.0,190.0,0.23959646910466584,0.05337519623233909
637,556,2.1926454962795106e-07,False,34.0,604.0,0.0,189.0,0.23833543505674654,0.05329153605015674
638,801,2.172671145217464e-07,False,34.0,605.0,0.0,188.0,0.23707440100882723,0.053208137715179966
639,588,2.165321717484403e-07,False,34.0,606.0,0.0,187.0,0.23581336696090793,0.053125
640,520,2.160072654078249e-07,False,34.0,607.0,0.0,186.0,0.23455233291298866,0.0530421216848674
641,462,2.131139638095192e-07,False,34.0,608.0,0.0,185.0,0.23329129886506936,0.0529595015576324
642,639,2.0916783682878304e-07,False,34.0,609.0,0.0,184.0,0.23203026481715006,0.05287713841368585
643,309,2.087851953547215e-07,False,34.0,610.0,0.0,183.0,0.23076923076923078,0.052795031055900624
644,169,2.081563366118644e-07,False,34.0,611.0,0.0,182.0,0.22950819672131148,0.05271317829457364
645,296,2.0774760400854575e-07,False,34.0,612.0,0.0,181.0,0.22824716267339218,0.05263157894736842
646,413,2.0480706552916672e-07,False,34.0,613.0,0.0,180.0,0.22698612862547288,0.05255023183925812
647,131,2.0058962491020793e-07,False,34.0,614.0,0.0,179.0,0.2257250945775536,0.05246913580246913
648,665,1.9431340092523897e-07,False,34.0,615.0,0.0,178.0,0.2244640605296343,0.05238828967642527
649,774,1.9231404735364777e-07,False,34.0,616.0,0.0,177.0,0.223203026481715,0.052307692307692305
650,494,1.917693737141235e-07,False,34.0,617.0,0.0,176.0,0.22194199243379573,0.05222734254992319
651,762,1.9083019253685052e-07,False,34.0,618.0,0.0,175.0,0.22068095838587642,0.05214723926380368
652,117,1.8777025445615436e-07,False,34.0,619.0,0.0,174.0,0.21941992433795712,0.05206738131699847
653,472,1.872634527444461e-07,False,34.0,620.0,0.0,173.0,0.21815889029003782,0.05198776758409786
654,426,1.8663428136278526e-07,False,34.0,621.0,0.0,172.0,0.21689785624211855,0.051908396946564885
655,172,1.85664276841635e-07,False,34.0,622.0,0.0,171.0,0.21563682219419925,0.051829268292682924
656,622,1.8404769264179777e-07,False,34.0,623.0,0.0,170.0,0.21437578814627994,0.0517503805175038
657,585,1.8372500676377967e-07,False,34.0,624.0,0.0,169.0,0.21311475409836064,0.05167173252279635
658,318,1.8299809312338766e-07,False,34.0,625.0,0.0,168.0,0.21185372005044137,0.051593323216995446
659,252,1.809112859518791e-07,False,34.0,626.0,0.0,167.0,0.21059268600252207,0.051515151515151514
660,118,1.8022558379016118e-07,False,34.0,627.0,0.0,166.0,0.20933165195460277,0.05143721633888049
661,284,1.8016234548667853e-07,False,34.0,628.0,0.0,165.0,0.2080706179066835,0.0513595166163142
662,455,1.785871859283361e-07,False,34.0,629.0,0.0,164.0,0.2068095838587642,0.05128205128205128
663,739,1.7544827812798758e-07,False,34.0,630.0,0.0,163.0,0.2055485498108449,0.05120481927710843
664,770,1.735600960728334e-07,False,34.0,631.0,0.0,162.0,0.2042875157629256,0.05112781954887218
665,47,1.6964244764494651e-07,False,34.0,632.0,0.0,161.0,0.2030264817150063,0.05105105105105105
666,614,1.66027462000784e-07,False,34.0,633.0,0.0,160.0,0.201765447667087,0.050974512743628186
667,651,1.6036261740737245e-07,False,34.0,634.0,0.0,159.0,0.2005044136191677,0.05089820359281437
668,709,1.5574066480894544e-07,False,34.0,635.0,0.0,158.0,0.19924337957124844,0.05082212257100149
669,700,1.5432044619956287e-07,False,34.0,636.0,0.0,157.0,0.19798234552332913,0.050746268656716415
670,107,1.531644926444642e-07,False,34.0,637.0,0.0,156.0,0.19672131147540983,0.05067064083457526
671,340,1.5262527597315056e-07,False,34.0,638.0,0.0,155.0,0.19546027742749053,0.050595238095238096
672,21,1.5067432457271934e-07,False,34.0,639.0,0.0,154.0,0.19419924337957126,0.05052005943536404
673,222,1.4962985517286143e-07,False,34.0,640.0,0.0,153.0,0.19293820933165196,0.050445103857566766
674,326,1.4487167732113448e-07,False,34.0,641.0,0.0,152.0,0.19167717528373265,0.05037037037037037
675,587,1.4421553373722418e-07,False,34.0,642.0,0.0,151.0,0.19041614123581338,0.05029585798816568
676,398,1.4320845309612196e-07,False,34.0,643.0,0.0,150.0,0.18915510718789408,0.050221565731166914
677,181,1.421148709823683e-07,False,34.0,644.0,0.0,149.0,0.18789407313997478,0.05014749262536873
678,562,1.408175620554175e-07,False,34.0,645.0,0.0,148.0,0.18663303909205547,0.050073637702503684
679,734,1.404160485662942e-07,False,34.0,646.0,0.0,147.0,0.1853720050441362,0.05
680,92,1.3994227288094407e-07,False,34.0,647.0,0.0,146.0,0.1841109709962169,0.049926578560939794
681,11,1.3633336948259966e-07,False,34.0,648.0,0.0,145.0,0.1828499369482976,0.04985337243401759
682,767,1.334286992005218e-07,False,34.0,649.0,0.0,144.0,0.18158890290037832,0.04978038067349927
683,139,1.3202622994867852e-07,False,34.0,650.0,0.0,143.0,0.18032786885245902,0.049707602339181284
684,337,1.2878396660198632e-07,False,34.0,651.0,0.0,142.0,0.17906683480453972,0.049635036496350364
685,256,1.265793230231793e-07,False,34.0,652.0,0.0,141.0,0.17780580075662042,0.04956268221574344
686,263,1.2550208339234814e-07,False,34.0,653.0,0.0,140.0,0.17654476670870115,0.049490538573508006
687,17,1.246653908992812e-07,False,34.0,654.0,0.0,139.0,0.17528373266078184,0.04941860465116279
688,696,1.2121509485041315e-07,False,34.0,655.0,0.0,138.0,0.17402269861286254,0.04934687953555878
689,50,1.2031125606881687e-07,False,34.0,656.0,0.0,137.0,0.17276166456494324,0.04927536231884058
690,250,1.190920713156629e-07,False,34.0,657.0,0.0,136.0,0.17150063051702397,0.049204052098408106
691,311,1.1772571184565095e-07,False,34.0,658.0,0.0,135.0,0.17023959646910466,0.049132947976878616
692,777,1.159020968088953e-07,False,34.0,659.0,0.0,134.0,0.16897856242118536,0.049062049062049064
693,308,1.1580353742601801e-07,False,34.0,660.0,0.0,133.0,0.1677175283732661,0.04899135446685879
694,642,1.1577836289689003e-07,False,34.0,661.0,0.0,132.0,0.1664564943253468,0.04892086330935252
695,225,1.1543019695636758e-07,False,34.0,662.0,0.0,131.0,0.16519546027742749,0.04885057471264368
696,765,1.1437887792453694e-07,False,34.0,663.0,0.0,130.0,0.16393442622950818,0.04878048780487805
697,350,1.1360919671687952e-07,False,34.0,664.0,0.0,129.0,0.1626733921815889,0.04871060171919771
698,530,1.1281563416787321e-07,False,34.0,665.0,0.0,128.0,0.1614123581336696,0.04864091559370529
699,416,1.1101089114617935e-07,False,34.0,666.0,0.0,127.0,0.1601513240857503,0.04857142857142857
700,359,1.0934633110082359e-07,False,34.0,667.0,0.0,126.0,0.15889029003783103,0.04850213980028531
701,0,1.0710036235650477e-07,False,34.0,668.0,0.0,125.0,0.15762925598991173,0.04843304843304843
702,13,1.058780441098861e-07,False,34.0,669.0,0.0,124.0,0.15636822194199243,0.04836415362731152
703,157,1.0538322214870277e-07,False,34.0,670.0,0.0,123.0,0.15510718789407313,0.048295454545454544
704,635,1.0478773049271695e-07,False,34.0,671.0,0.0,122.0,0.15384615384615385,0.04822695035460993
705,9,1.0378859371940052e-07,False,34.0,672.0,0.0,121.0,0.15258511979823455,0.04815864022662889
706,817,1.0266025896044084e-07,False,34.0,673.0,0.0,120.0,0.15132408575031525,0.04809052333804809
707,130,1.024918105940742e-07,False,34.0,674.0,0.0,119.0,0.15006305170239598,0.0480225988700565
708,450,1.0042377596164442e-07,False,34.0,675.0,0.0,118.0,0.14880201765447668,0.047954866008462625
709,470,9.985669180423429e-08,False,34.0,676.0,0.0,117.0,0.14754098360655737,0.04788732394366197
710,268,9.673035350488135e-08,False,34.0,677.0,0.0,116.0,0.14627994955863807,0.04781997187060478
711,331,9.330526040685072e-08,False,34.0,678.0,0.0,115.0,0.1450189155107188,0.047752808988764044
712,278,9.293741953797507e-08,False,34.0,679.0,0.0,114.0,0.1437578814627995,0.047685834502103785
713,576,9.115045429552993e-08,False,34.0,680.0,0.0,113.0,0.1424968474148802,0.047619047619047616
714,659,9.107694154408819e-08,False,34.0,681.0,0.0,112.0,0.14123581336696092,0.04755244755244755
715,634,9.032336834025045e-08,False,34.0,682.0,0.0,111.0,0.13997477931904162,0.04748603351955307
716,653,8.764916969994374e-08,False,34.0,683.0,0.0,110.0,0.13871374527112232,0.04741980474198047
717,792,8.575688070777687e-08,False,34.0,684.0,0.0,109.0,0.13745271122320302,0.04735376044568245
718,510,8.468281009754719e-08,False,34.0,685.0,0.0,108.0,0.13619167717528374,0.04728789986091794
719,671,8.32320097288175e-08,False,34.0,686.0,0.0,107.0,0.13493064312736444,0.04722222222222222
720,72,8.108835913844814e-08,False,34.0,687.0,0.0,106.0,0.13366960907944514,0.047156726768377254
721,335,7.669271440136072e-08,False,34.0,688.0,0.0,105.0,0.13240857503152584,0.04709141274238227
722,561,7.45832267057267e-08,False,34.0,689.0,0.0,104.0,0.13114754098360656,0.04702627939142462
723,655,7.434489646129805e-08,False,34.0,690.0,0.0,103.0,0.12988650693568726,0.04696132596685083
724,663,7.341865426724326e-08,False,34.0,691.0,0.0,102.0,0.12862547288776796,0.04689655172413793
725,163,7.087655973236906e-08,False,34.0,692.0,0.0,101.0,0.1273644388398487,0.046831955922865015
726,6,7.066840623792814e-08,False,34.0,693.0,0.0,100.0,0.12610340479192939,0.04676753782668501
727,20,6.750098435759355e-08,False,34.0,694.0,0.0,99.0,0.12484237074401008,0.046703296703296704
728,352,6.561928245218951e-08,False,34.0,695.0,0.0,98.0,0.1235813366960908,0.04663923182441701
729,811,6.134206387287122e-08,False,34.0,696.0,0.0,97.0,0.1223203026481715,0.04657534246575343
730,237,6.118477813288337e-08,False,34.0,697.0,0.0,96.0,0.1210592686002522,0.046511627906976744
731,405,5.871616082231412e-08,False,34.0,698.0,0.0,95.0,0.11979823455233292,0.04644808743169399
732,316,5.812536940652535e-08,False,34.0,699.0,0.0,94.0,0.11853720050441362,0.04638472032742155
733,360,5.75971839111844e-08,False,34.0,700.0,0.0,93.0,0.11727616645649433,0.04632152588555858
734,329,5.57444508331173e-08,False,34.0,701.0,0.0,92.0,0.11601513240857503,0.04625850340136054
735,743,5.548773884811453e-08,False,34.0,702.0,0.0,91.0,0.11475409836065574,0.04619565217391304
736,182,5.5467531012709514e-08,False,34.0,703.0,0.0,90.0,0.11349306431273644,0.04613297150610583
737,52,5.4867967946847784e-08,False,34.0,704.0,0.0,89.0,0.11223203026481715,0.04607046070460705
738,37,5.468398711627742e-08,False,34.0,705.0,0.0,88.0,0.11097099621689786,0.046008119079837616
739,164,5.2869470579253175e-08,False,34.0,706.0,0.0,87.0,0.10970996216897856,0.04594594594594595
740,760,5.279288828319295e-08,False,34.0,707.0,0.0,86.0,0.10844892812105927,0.04588394062078273
741,692,5.251570200925926e-08,False,34.0,708.0,0.0,85.0,0.10718789407313997,0.04582210242587601
742,806,5.188882923334859e-08,False,34.0,709.0,0.0,84.0,0.10592686002522068,0.04576043068640646
743,637,5.169816930106208e-08,False,34.0,710.0,0.0,83.0,0.10466582597730138,0.0456989247311828
744,267,5.0790859518201614e-08,False,34.0,711.0,0.0,82.0,0.1034047919293821,0.04563758389261745
745,496,5.075754927474918e-08,False,34.0,712.0,0.0,81.0,0.1021437578814628,0.045576407506702415
746,430,4.903112227339079e-08,False,34.0,713.0,0.0,80.0,0.1008827238335435,0.04551539491298527
747,652,4.843808554255702e-08,False,34.0,714.0,0.0,79.0,0.09962168978562422,0.045454545454545456
748,373,4.724288515944863e-08,False,34.0,715.0,0.0,78.0,0.09836065573770492,0.04539385847797063
749,481,4.7136406777781303e-08,False,34.0,716.0,0.0,77.0,0.09709962168978563,0.04533333333333334
750,105,4.5896399569755886e-08,False,34.0,717.0,0.0,76.0,0.09583858764186633,0.045272969374167776
751,560,4.526333441390307e-08,False,34.0,718.0,0.0,75.0,0.09457755359394704,0.04521276595744681
752,281,4.365353944990602e-08,False,34.0,719.0,0.0,74.0,0.09331651954602774,0.0451527224435591
753,593,4.263710451368752e-08,False,34.0,720.0,0.0,73.0,0.09205548549810845,0.04509283819628647
754,122,4.180453316848798e-08,False,34.0,721.0,0.0,72.0,0.09079445145018916,0.045033112582781455
755,605,4.0810434143168095e-08,False,34.0,722.0,0.0,71.0,0.08953341740226986,0.04497354497354497
756,108,4.0774178700075936e-08,False,34.0,723.0,0.0,70.0,0.08827238335435057,0.04491413474240423
757,819,4.010109222463143e-08,False,34.0,724.0,0.0,69.0,0.08701134930643127,0.044854881266490766
758,824,3.9853432554082246e-08,False,34.0,725.0,0.0,68.0,0.08575031525851198,0.04479578392621871
759,552,3.950288274268132e-08,False,34.0,726.0,0.0,67.0,0.08448928121059268,0.04473684210526316
760,351,3.886790267415563e-08,False,34.0,727.0,0.0,66.0,0.0832282471626734,0.04467805519053877
761,160,3.674875159731528e-08,False,34.0,728.0,0.0,65.0,0.08196721311475409,0.04461942257217848
762,383,3.66760666281607e-08,False,34.0,729.0,0.0,64.0,0.0807061790668348,0.04456094364351245
763,288,3.5971009282320665e-08,False,34.0,730.0,0.0,63.0,0.07944514501891552,0.04450261780104712
764,526,3.476893795095748e-08,False,34.0,731.0,0.0,62.0,0.07818411097099622,0.044444444444444446
765,30,3.403926385203704e-08,False,34.0,732.0,0.0,61.0,0.07692307692307693,0.044386422976501305
766,392,3.2373801417406867e-08,False,34.0,733.0,0.0,60.0,0.07566204287515763,0.04432855280312908
767,230,3.227706102393313e-08,False,34.0,734.0,0.0,59.0,0.07440100882723834,0.044270833333333336
768,536,3.225804334761051e-08,False,34.0,735.0,0.0,58.0,0.07313997477931904,0.044213263979193757
769,322,2.997612824628959e-08,False,34.0,736.0,0.0,57.0,0.07187894073139975,0.04415584415584416
770,621,2.957794187352647e-08,False,34.0,737.0,0.0,56.0,0.07061790668348046,0.04409857328145266
771,51,2.8655460226900686e-08,False,34.0,738.0,0.0,55.0,0.06935687263556116,0.04404145077720207
772,347,2.765662898696064e-08,False,34.0,739.0,0.0,54.0,0.06809583858764187,0.04398447606727038
773,153,2.6837440714189142e-08,False,34.0,740.0,0.0,53.0,0.06683480453972257,0.04392764857881137
774,189,2.469275273142557e-08,False,34.0,741.0,0.0,52.0,0.06557377049180328,0.04387096774193548
775,687,2.453880121322527e-08,False,34.0,742.0,0.0,51.0,0.06431273644388398,0.04381443298969072
776,623,2.4277676757833433e-08,False,34.0,743.0,0.0,50.0,0.06305170239596469,0.043758043758043756
777,173,2.3732660281439166e-08,False,34.0,744.0,0.0,49.0,0.0617906683480454,0.043701799485861184
778,711,2.368567564303703e-08,False,34.0,745.0,0.0,48.0,0.0605296343001261,0.043645699614890884
779,610,2.208619420684954e-08,False,34.0,746.0,0.0,47.0,0.05926860025220681,0.04358974358974359
780,421,2.2082277340018663e-08,False,34.0,747.0,0.0,46.0,0.058007566204287514,0.04353393085787452
781,307,1.9720564736758206e-08,False,34.0,748.0,0.0,45.0,0.05674653215636822,0.043478260869565216
782,799,1.7456429191042844e-08,False,34.0,749.0,0.0,44.0,0.05548549810844893,0.04342273307790549
783,547,1.589392617518115e-08,False,34.0,750.0,0.0,43.0,0.05422446406052964,0.04336734693877551
784,244,1.570567143005519e-08,False,34.0,751.0,0.0,42.0,0.05296343001261034,0.04331210191082802
785,29,1.356930390272737e-08,False,34.0,752.0,0.0,41.0,0.05170239596469105,0.043256997455470736
786,427,1.2814854954967814e-08,False,34.0,753.0,0.0,40.0,0.05044136191677175,0.043202033036848796
787,129,1.0972986075330482e-08,False,34.0,754.0,0.0,39.0,0.04918032786885246,0.04314720812182741
788,636,1.0345353906870969e-08,False,34.0,755.0,0.0,38.0,0.04791929382093316,0.043092522179974654
789,144,1.0153348384278615e-08,False,34.0,756.0,0.0,37.0,0.04665825977301387,0.043037974683544304
790,226,9.925734900662064e-09,False,34.0,757.0,0.0,36.0,0.04539722572509458,0.04298356510745891
791,328,8.337130985580643e-09,False,34.0,758.0,0.0,35.0,0.044136191677175286,0.04292929292929293
792,602,8.287553754371402e-09,False,34.0,759.0,0.0,34.0,0.04287515762925599,0.04287515762925599
793,745,7.775330601589303e-09,False,34.0,760.0,0.0,33.0,0.0416141235813367,0.042821158690176324
794,412,7.641758337229021e-09,False,34.0,761.0,0.0,32.0,0.0403530895334174,0.042767295597484274
795,197,7.416767644485844e-09,False,34.0,762.0,0.0,31.0,0.03909205548549811,0.04271356783919598
796,233,7.396199208642429e-09,False,34.0,763.0,0.0,30.0,0.03783102143757881,0.04265997490589712
797,306,7.120741774002681e-09,False,34.0,764.0,0.0,29.0,0.03656998738965952,0.042606516290726815
798,615,7.05051972360593e-09,False,34.0,765.0,0.0,28.0,0.03530895334174023,0.0425531914893617
799,706,6.941582419983661e-09,False,34.0,766.0,0.0,27.0,0.034047919293820936,0.0425
800,428,6.872733493423766e-09,False,34.0,767.0,0.0,26.0,0.03278688524590164,0.04244694132334582
801,240,6.673859243022662e-09,False,34.0,768.0,0.0,25.0,0.031525851197982346,0.04239401496259352
802,431,6.2989129467894145e-09,False,34.0,769.0,0.0,24.0,0.03026481715006305,0.04234122042341221
803,751,6.173829891764626e-09,False,34.0,770.0,0.0,23.0,0.029003783102143757,0.04228855721393035
804,727,6.09506312088115e-09,False,34.0,771.0,0.0,22.0,0.027742749054224466,0.0422360248447205
805,418,5.443514083935952e-09,False,34.0,772.0,0.0,21.0,0.02648171500630517,0.04218362282878412
806,694,5.011157266920918e-09,False,34.0,773.0,0.0,20.0,0.025220680958385876,0.042131350681536554
807,483,3.7122602769557034e-09,False,34.0,774.0,0.0,19.0,0.02395964691046658,0.04207920792079208
808,752,3.3876674798705153e-09,False,34.0,775.0,0.0,18.0,0.02269861286254729,0.042027194066749075
809,154,3.2220088819201465e-09,False,34.0,776.0,0.0,17.0,0.021437578814627996,0.04197530864197531
810,479,3.1891029816932814e-09,False,34.0,777.0,0.0,16.0,0.0201765447667087,0.04192355117139334
811,387,3.15833381669961e-09,False,34.0,778.0,0.0,15.0,0.018915510718789406,0.04187192118226601
812,596,3.0191171784821336e-09,False,34.0,779.0,0.0,14.0,0.017654476670870115,0.041820418204182044
813,497,2.997153858430579e-09,False,34.0,780.0,0.0,13.0,0.01639344262295082,0.04176904176904177
814,48,2.9619307007067164e-09,False,34.0,781.0,0.0,12.0,0.015132408575031526,0.04171779141104295
815,677,2.9439468640646282e-09,False,34.0,782.0,0.0,11.0,0.013871374527112233,0.041666666666666664
816,737,2.896360040693935e-09,False,34.0,783.0,0.0,10.0,0.012610340479192938,0.0416156670746634
817,649,2.646280972129489e-09,False,34.0,784.0,0.0,9.0,0.011349306431273645,0.04156479217603912
818,825,2.405507792957451e-09,False,34.0,785.0,0.0,8.0,0.01008827238335435,0.04151404151404151
819,257,2.225244655207348e-09,False,34.0,786.0,0.0,7.0,0.008827238335435058,0.041463414634146344
820,3,1.7344905511862407e-09,False,34.0,787.0,0.0,6.0,0.007566204287515763,0.04141291108404385
821,245,1.6431978000497338e-09,False,34.0,788.0,0.0,5.0,0.006305170239596469,0.0413625304136253
822,49,1.6290550020059413e-09,False,34.0,789.0,0.0,4.0,0.005044136191677175,0.041312272174969626
823,436,1.3851926272678838e-09,False,34.0,790.0,0.0,3.0,0.0037831021437578815,0.0412621359223301
824,280,1.2739348465018452e-09,False,34.0,791.0,0.0,2.0,0.0025220680958385876,0.041212121212121214
825,70,1.0359427760064932e-09,False,34.0,792.0,0.0,1.0,0.0012610340479192938,0.04116222760290557
826,210,2.364150819555988e-10,False,34.0,793.0,0.0,0.0,0.0,0.041112454655380895
